 frequency       inoise_spectrum onoise_spectrum
 1.00000000e+00  3.49217150e-05  6.22540269e+00 
 1.05776756e+00  3.39547470e-05  6.04401503e+00 
 1.11887221e+00  3.30145541e-05  5.86690437e+00 
 1.18350673e+00  3.21003951e-05  5.69389634e+00 
 1.25187503e+00  3.12115489e-05  5.52481837e+00 
 1.32419279e+00  3.03473149e-05  5.35949977e+00 
 1.40068818e+00  2.95070113e-05  5.19777185e+00 
 1.48160252e+00  2.86899757e-05  5.03946811e+00 
 1.56719108e+00  2.78955637e-05  4.88442450e+00 
 1.65772389e+00  2.71231489e-05  4.73247988e+00 
 1.75348655e+00  2.63721222e-05  4.58347647e+00 
 1.85478119e+00  2.56418914e-05  4.43726054e+00 
 1.96192737e+00  2.49318806e-05  4.29368318e+00 
 2.07526313e+00  2.42415300e-05  4.15260127e+00 
 2.19514602e+00  2.35702952e-05  4.01387860e+00 
 2.32195425e+00  2.29176469e-05  3.87738711e+00 
 2.45608788e+00  2.22830704e-05  3.74300836e+00 
 2.59797009e+00  2.16660654e-05  3.61063509e+00 
 2.74804848e+00  2.10661452e-05  3.48017289e+00 
 2.90679654e+00  2.04828369e-05  3.35154194e+00 
 3.07471508e+00  1.99156804e-05  3.22467884e+00 
 3.25233387e+00  1.93642285e-05  3.09953825e+00 
 3.44021326e+00  1.88280464e-05  2.97609447e+00 
 3.63894599e+00  1.83067113e-05  2.85434279e+00 
 3.84915902e+00  1.77998120e-05  2.73430043e+00 
 4.07151555e+00  1.73069488e-05  2.61600706e+00 
 4.30671707e+00  1.68277332e-05  2.49952477e+00 
 4.55550561e+00  1.63617871e-05  2.38493730e+00 
 4.81866605e+00  1.59087432e-05  2.27234870e+00 
 5.09702863e+00  1.54682443e-05  2.16188109e+00 
 5.39147154e+00  1.50399429e-05  2.05367182e+00 
 5.70292370e+00  1.46235013e-05  1.94786989e+00 
 6.03236769e+00  1.42185912e-05  1.84463184e+00 
 6.38084285e+00  1.38248932e-05  1.74411725e+00 
 6.74944857e+00  1.34420969e-05  1.64648404e+00 
 7.13934775e+00  1.30699005e-05  1.55188376e+00 
 7.55177045e+00  1.27080104e-05  1.46045709e+00 
 7.98801781e+00  1.23561412e-05  1.37232980e+00 
 8.44946611e+00  1.20140156e-05  1.28760930e+00 
 8.93757115e+00  1.16813637e-05  1.20638185e+00 
 9.45387283e+00  1.13579232e-05  1.12871071e+00 
 1.00000000e+01  1.10434390e-05  1.05463496e+00 
 1.05776756e+01  1.07376632e-05  9.84169290e-01 
 1.11887221e+01  1.04403547e-05  9.17304452e-01 
 1.18350673e+01  1.01512789e-05  8.54008397e-01 
 1.25187503e+01  9.87020800e-06  7.94227941e-01 
 1.32419279e+01  9.59692030e-06  7.37890846e-01 
 1.40068818e+01  9.33120030e-06  6.84908166e-01 
 1.48160252e+01  9.07283846e-06  6.35176754e-01 
 1.56719108e+01  8.82163107e-06  5.88581805e-01 
 1.65772389e+01  8.57738001e-06  5.44999356e-01 
 1.75348655e+01  8.33989270e-06  5.04298660e-01 
 1.85478119e+01  8.10898185e-06  4.66344388e-01 
 1.96192737e+01  7.88446539e-06  4.30998619e-01 
 2.07526313e+01  7.66616626e-06  3.98122601e-01 
 2.19514602e+01  7.45391233e-06  3.67578266e-01 
 2.32195425e+01  7.24753622e-06  3.39229521e-01 
 2.45608788e+01  7.04687520e-06  3.12943307e-01 
 2.59797009e+01  6.85177102e-06  2.88590445e-01 
 2.74804848e+01  6.66206985e-06  2.66046302e-01 
 2.90679654e+01  6.47762209e-06  2.45191282e-01 
 3.07471508e+01  6.29828229e-06  2.25911168e-01 
 3.25233387e+01  6.12390904e-06  2.08097340e-01 
 3.44021326e+01  5.95436483e-06  1.91646889e-01 
 3.63894599e+01  5.78951596e-06  1.76462633e-01 
 3.84915902e+01  5.62923245e-06  1.62453073e-01 
 4.07151555e+01  5.47338790e-06  1.49532282e-01 
 4.30671707e+01  5.32185942e-06  1.37619751e-01 
 4.55550561e+01  5.17452752e-06  1.26640207e-01 
 4.81866605e+01  5.03127603e-06  1.16523396e-01 
 5.09702863e+01  4.89199197e-06  1.07203861e-01 
 5.39147154e+01  4.75656552e-06  9.86206985e-02 
 5.70292370e+01  4.62488988e-06  9.07173177e-02 
 6.03236769e+01  4.49686123e-06  8.34411954e-02 
 6.38084285e+01  4.37237860e-06  7.67436342e-02 
 6.74944857e+01  4.25134383e-06  7.05795248e-02 
 7.13934775e+01  4.13366148e-06  6.49071164e-02 
 7.55177045e+01  4.01923875e-06  5.96877950e-02 
 7.98801781e+01  3.90798541e-06  5.48858709e-02 
 8.44946611e+01  3.79981374e-06  5.04683767e-02 
 8.93757115e+01  3.69463843e-06  4.64048755e-02 
 9.45387283e+01  3.59237655e-06  4.26672797e-02 
 1.00000000e+02  3.49294745e-06  3.92296806e-02 
 1.05776756e+02  3.39627274e-06  3.60681881e-02 
 1.11887221e+02  3.30227617e-06  3.31607809e-02 
 1.18350673e+02  3.21088364e-06  3.04871663e-02 
 1.25187503e+02  3.12202306e-06  2.80286493e-02 
 1.32419279e+02  3.03562436e-06  2.57680112e-02 
 1.40068818e+02  2.95161943e-06  2.36893961e-02 
 1.48160252e+02  2.86994201e-06  2.17782059e-02 
 1.56719108e+02  2.79052770e-06  2.00210029e-02 
 1.65772389e+02  2.71331387e-06  1.84054194e-02 
 1.75348655e+02  2.63823964e-06  1.69200736e-02 
 1.85478119e+02  2.56524580e-06  1.55544930e-02 
 1.96192737e+02  2.49427480e-06  1.42990424e-02 
 2.07526313e+02  2.42527068e-06  1.31448576e-02 
 2.19514602e+02  2.35817901e-06  1.20837850e-02 
 2.32195425e+02  2.29294690e-06  1.11083244e-02 
 2.45608788e+02  2.22952290e-06  1.02115781e-02 
 2.59797009e+02  2.16785700e-06  9.38720193e-03 
 2.74804848e+02  2.10790057e-06  8.62936180e-03 
 2.90679654e+02  2.04960634e-06  7.93269268e-03 
 3.07471508e+02  1.99292833e-06  7.29226115e-03 
 3.25233387e+02  1.93782186e-06  6.70353087e-03 
 3.44021326e+02  1.88424346e-06  6.16233076e-03 
 3.63894599e+02  1.83215089e-06  5.66482570e-03 
 3.84915902e+02  1.78150306e-06  5.20748959e-03 
 4.07151555e+02  1.73226005e-06  4.78708049e-03 
 4.30671707e+02  1.68438301e-06  4.40061783e-03 
 4.55550561e+02  1.63783420e-06  4.04536138e-03 
 4.81866605e+02  1.59257691e-06  3.71879190e-03 
 5.09702863e+02  1.54857544e-06  3.41859336e-03 
 5.39147154e+02  1.50579511e-06  3.14263660e-03 
 5.70292370e+02  1.46420217e-06  2.88896425e-03 
 6.03236769e+02  1.42376383e-06  2.65577690e-03 
 6.38084285e+02  1.38444820e-06  2.44142036e-03 
 6.74944857e+02  1.34622427e-06  2.24437398e-03 
 7.13934775e+02  1.30906191e-06  2.06323985e-03 
 7.55177045e+02  1.27293180e-06  1.89673292e-03 
 7.98801781e+02  1.23780546e-06  1.74367189e-03 
 8.44946611e+02  1.20365519e-06  1.60297085e-03 
 8.93757115e+02  1.17045405e-06  1.47363155e-03 
 9.45387283e+02  1.13817586e-06  1.35473637e-03 
 1.00000000e+03  1.10679517e-06  1.24544179e-03 
 1.05776756e+03  1.07628724e-06  1.14497241e-03 
 1.11887221e+03  1.04662799e-06  1.05261544e-03 
 1.18350673e+03  1.01779405e-06  9.67715660e-04 
 1.25187503e+03  9.89762680e-07  8.89670784e-04 
 1.32419279e+03  9.62511763e-07  8.17927157e-04 
 1.40068818e+03  9.36019814e-07  7.51975846e-04 
 1.48160252e+03  9.10265939e-07  6.91349023e-04 
 1.56719108e+03  8.85229829e-07  6.35616649e-04 
 1.65772389e+03  8.60891737e-07  5.84383418e-04 
 1.75348655e+03  8.37232469e-07  5.37285956e-04 
 1.85478119e+03  8.14233365e-07  4.93990238e-04 
 1.96192737e+03  7.91876285e-07  4.54189223e-04 
 2.07526313e+03  7.70143596e-07  4.17600667e-04 
 2.19514602e+03  7.49018156e-07  3.83965128e-04 
 2.32195425e+03  7.28483302e-07  3.53044118e-04 
 2.45608788e+03  7.08522836e-07  3.24618414e-04 
 2.59797009e+03  6.89121014e-07  2.98486501e-04 
 2.74804848e+03  6.70262529e-07  2.74463141e-04 
 2.90679654e+03  6.51932506e-07  2.52378059e-04 
 3.07471508e+03  6.34116481e-07  2.32074734e-04 
 3.25233387e+03  6.16800401e-07  2.13409287e-04 
 3.44021326e+03  5.99970600e-07  1.96249462e-04 
 3.63894599e+03  5.83613801e-07  1.80473685e-04 
 3.84915902e+03  5.67717094e-07  1.65970202e-04 
 4.07151555e+03  5.52267935e-07  1.52636287e-04 
 4.30671707e+03  5.37254129e-07  1.40377508e-04 
 4.55550561e+03  5.22663826e-07  1.29107065e-04 
 4.81866605e+03  5.08485507e-07  1.18745165e-04 
 5.09702863e+03  4.94707976e-07  1.09218462e-04 
 5.39147154e+03  4.81320356e-07  1.00459533e-04 
 5.70292370e+03  4.68312071e-07  9.24064009e-05 
 6.03236769e+03  4.55672847e-07  8.50020941e-05 
 6.38084285e+03  4.43392696e-07  7.81942427e-05 
 6.74944857e+03  4.31461914e-07  7.19347060e-05 
 7.13934775e+03  4.19871069e-07  6.61792313e-05 
 7.55177045e+03  4.08610997e-07  6.08871399e-05 
 7.98801781e+03  3.97672791e-07  5.60210382e-05 
 8.44946611e+03  3.87047796e-07  5.15465523e-05 
 8.93757115e+03  3.76727603e-07  4.74320844e-05 
 9.45387283e+03  3.66704038e-07  4.36485881e-05 
 1.00000000e+04  3.56969161e-07  4.01693627e-05 
 1.05776756e+04  3.47515255e-07  3.69698635e-05 
 1.11887221e+04  3.38334821e-07  3.40275277e-05 
 1.18350673e+04  3.29420573e-07  3.13216143e-05 
 1.25187503e+04  3.20765430e-07  2.88330570e-05 
 1.32419279e+04  3.12362514e-07  2.65443289e-05 
 1.40068818e+04  3.04205137e-07  2.44393182e-05 
 1.48160252e+04  2.96286804e-07  2.25032137e-05 
 1.56719108e+04  2.88601202e-07  2.07224001e-05 
 1.65772389e+04  2.81142195e-07  1.90843612e-05 
 1.75348655e+04  2.73903822e-07  1.75775909e-05 
 1.85478119e+04  2.66880288e-07  1.61915122e-05 
 1.96192737e+04  2.60065962e-07  1.49164016e-05 
 2.07526313e+04  2.53455369e-07  1.37433205e-05 
 2.19514602e+04  2.47043190e-07  1.26640517e-05 
 2.32195425e+04  2.40824251e-07  1.16710411e-05 
 2.45608788e+04  2.34793526e-07  1.07573443e-05 
 2.59797009e+04  2.28946124e-07  9.91657719e-06 
 2.74804848e+04  2.23277291e-07  9.14287076e-06 
 2.90679654e+04  2.17782403e-07  8.43082957e-06 
 3.07471508e+04  2.12456964e-07  7.77549346e-06 
 3.25233387e+04  2.07296596e-07  7.17230241e-06 
 3.44021326e+04  2.02297043e-07  6.61706422e-06 
 3.63894599e+04  1.97454162e-07  6.10592485e-06 
 3.84915902e+04  1.92763917e-07  5.63534107e-06 
 4.07151555e+04  1.88222382e-07  5.20205542e-06 
 4.30671707e+04  1.83825731e-07  4.80307310e-06 
 4.55550561e+04  1.79570237e-07  4.43564079e-06 
 4.81866605e+04  1.75452268e-07  4.09722715e-06 
 5.09702863e+04  1.71468284e-07  3.78550489e-06 
 5.39147154e+04  1.67614831e-07  3.49833435e-06 
 5.70292370e+04  1.63888540e-07  3.23374830e-06 
 6.03236769e+04  1.60286125e-07  2.98993806e-06 
 6.38084285e+04  1.56804374e-07  2.76524069e-06 
 6.74944857e+04  1.53440154e-07  2.55812725e-06 
 7.13934775e+04  1.50190399e-07  2.36719196e-06 
 7.55177045e+04  1.47052116e-07  2.19114230e-06 
 7.98801781e+04  1.44022374e-07  2.02878984e-06 
 8.44946611e+04  1.41098307e-07  1.87904187e-06 
 8.93757115e+04  1.38277110e-07  1.74089367e-06 
 9.45387283e+04  1.35556034e-07  1.61342138e-06 
 1.00000000e+05  1.32932386e-07  1.49577556e-06 
 1.05776756e+05  1.30403528e-07  1.38717510e-06 
 1.11887221e+05  1.27966871e-07  1.28690177e-06 
 1.18350673e+05  1.25619878e-07  1.19429512e-06 
 1.25187503e+05  1.23360056e-07  1.10874782e-06 
 1.32419279e+05  1.21184962e-07  1.02970141e-06 
 1.40068818e+05  1.19092193e-07  9.56642314e-07 
 1.48160252e+05  1.17079392e-07  8.89098244e-07 
 1.56719108e+05  1.15144244e-07  8.26634872e-07 
 1.65772389e+05  1.13284474e-07  7.68852761e-07 
 1.75348655e+05  1.11497847e-07  7.15384553e-07 
 1.85478119e+05  1.09782167e-07  6.65892383e-07 
 1.96192737e+05  1.08135280e-07  6.20065495e-07 
 2.07526313e+05  1.06555066e-07  5.77618057e-07 
 2.19514602e+05  1.05039446e-07  5.38287149e-07 
 2.32195425e+05  1.03586379e-07  5.01830913e-07 
 2.45608788e+05  1.02193862e-07  4.68026851e-07 
 2.59797009e+05  1.00859930e-07  4.36670262e-07 
 2.74804848e+05  9.95826576e-08  4.07572803e-07 
 2.90679654e+05  9.83601567e-08  3.80561167e-07 
 3.07471508e+05  9.71905799e-08  3.55475867e-07 
 3.25233387e+05  9.60721196e-08  3.32170120e-07 
 3.44021326e+05  9.50030086e-08  3.10508816e-07 
 3.63894599e+05  9.39815210e-08  2.90367576e-07 
 3.84915902e+05  9.30059730e-08  2.71631880e-07 
 4.07151555e+05  9.20747236e-08  2.54196272e-07 
 4.30671707e+05  9.11861753e-08  2.37963626e-07 
 4.55550561e+05  9.03387751e-08  2.22844468e-07 
 4.81866605e+05  8.95310156e-08  2.08756360e-07 
 5.09702863e+05  8.87614354e-08  1.95623326e-07 
 5.39147154e+05  8.80286206e-08  1.83375335e-07 
 5.70292370e+05  8.73312057e-08  1.71947812e-07 
 6.03236769e+05  8.66678744e-08  1.61281205e-07 
 6.38084285e+05  8.60373607e-08  1.51320570e-07 
 6.74944857e+05  8.54384505e-08  1.42015206e-07 
 7.13934775e+05  8.48699822e-08  1.33318310e-07 
 7.55177045e+05  8.43308482e-08  1.25186661e-07 
 7.98801781e+05  8.38199965e-08  1.17580335e-07 
 8.44946611e+05  8.33364316e-08  1.10462436e-07 
 8.93757115e+05  8.28792165e-08  1.03798858e-07 
 9.45387283e+05  8.24474741e-08  9.75580555e-08 
 1.00000000e+06  8.20403892e-08  9.17108458e-08 
 1.05776756e+06  8.16572103e-08  8.62302160e-08 
 1.11887221e+06  8.12972519e-08  8.10911529e-08 
 1.18350673e+06  8.09598966e-08  7.62704842e-08 
 1.25187503e+06  8.06445981e-08  7.17467342e-08 
 1.32419279e+06  8.03508835e-08  6.74999899e-08 
 1.40068818e+06  8.00783564e-08  6.35117798e-08 
 1.48160252e+06  7.98267003e-08  5.97649619e-08 
 1.56719108e+06  7.95956818e-08  5.62436214e-08 
 1.65772389e+06  7.93851546e-08  5.29329764e-08 
 1.75348655e+06  7.91950627e-08  4.98192926e-08 
 1.85478119e+06  7.90254448e-08  4.68898037e-08 
 1.96192737e+06  7.88764384e-08  4.41326404e-08 
 2.07526313e+06  7.87482831e-08  4.15367633e-08 
 2.19514602e+06  7.86413252e-08  3.90919032e-08 
 2.32195425e+06  7.85560207e-08  3.67885061e-08 
 2.45608788e+06  7.84929387e-08  3.46176818e-08 
 2.59797009e+06  7.84527633e-08  3.25711588e-08 
 2.74804848e+06  7.84362955e-08  3.06412410e-08 
 2.90679654e+06  7.84444527e-08  2.88207699e-08 
 3.07471508e+06  7.84782674e-08  2.71030884e-08 
 3.25233387e+06  7.85388833e-08  2.54820081e-08 
 3.44021326e+06  7.86275488e-08  2.39517793e-08 
 3.63894599e+06  7.87456080e-08  2.25070627e-08 
 3.84915902e+06  7.88944870e-08  2.11429031e-08 
 4.07151555e+06  7.90756772e-08  1.98547040e-08 
 4.30671707e+06  7.92907135e-08  1.86382044e-08 
 4.55550561e+06  7.95411472e-08  1.74894555e-08 
 4.81866605e+06  7.98285145e-08  1.64047984e-08 
 5.09702863e+06  8.01542991e-08  1.53808420e-08 
 5.39147154e+06  8.05198894e-08  1.44144413e-08 
 5.70292370e+06  8.09265321e-08  1.35026760e-08 
 6.03236769e+06  8.13752812e-08  1.26428293e-08 
 6.38084285e+06  8.18669444e-08  1.18323662e-08 
 6.74944857e+06  8.24020291e-08  1.10689138e-08 
 7.13934775e+06  8.29806890e-08  1.03502411e-08 
 7.55177045e+06  8.36026743e-08  9.67424036e-09 
 7.98801781e+06  8.42672877e-08  9.03890972e-09 
 8.44946611e+06  8.49733492e-08  8.44233737e-09 
 8.93757115e+06  8.57191719e-08  7.88268774e-09 
 9.45387283e+06  8.65025513e-08  7.35818967e-09 
 1.00000000e+07  8.73207699e-08  6.86712681e-09 
 1.05776756e+07  8.81706191e-08  6.40783023e-09 
 1.11887221e+07  8.90484379e-08  5.97867306e-09 
 1.18350673e+07  8.99501688e-08  5.57806725e-09 
 1.25187503e+07  9.08714307e-08  5.20446201e-09 
 1.32419279e+07  9.18076051e-08  4.85634367e-09 
 1.40068818e+07  9.27539345e-08  4.53223689e-09 
 1.48160252e+07  9.37056292e-08  4.23070663e-09 
 1.56719108e+07  9.46579785e-08  3.95036080e-09 
 1.65772389e+07  9.56064621e-08  3.68985323e-09 
 1.75348655e+07  9.65468588e-08  3.44788674e-09 
 1.85478119e+07  9.74753464e-08  3.22321604e-09 
 1.96192737e+07  9.83885915e-08  3.01465041e-09 
 2.07526313e+07  9.92838246e-08  2.82105593e-09 
 2.19514602e+07  1.00158900e-07  2.64135714e-09 
 2.32195425e+07  1.01012340e-07  2.47453821e-09 
 2.45608788e+07  1.01843357e-07  2.31964341e-09 
 2.59797009e+07  1.02651869e-07  2.17577699e-09 
 2.74804848e+07  1.03438490e-07  2.04210249e-09 
 2.90679654e+07  1.04204517e-07  1.91784147e-09 
 3.07471508e+07  1.04951901e-07  1.80227180e-09 
 3.25233387e+07  1.05683219e-07  1.69472545e-09 
 3.44021326e+07  1.06401632e-07  1.59458606e-09 
 3.63894599e+07  1.07110853e-07  1.50128613e-09 
 3.84915902e+07  1.07815106e-07  1.41430414e-09 
 4.07151555e+07  1.08519092e-07  1.33316146e-09 
 4.30671707e+07  1.09227963e-07  1.25741932e-09 
 4.55550561e+07  1.09947287e-07  1.18667572e-09 
 4.81866605e+07  1.10683037e-07  1.12056242e-09 
 5.09702863e+07  1.11441563e-07  1.05874209e-09 
 5.39147154e+07  1.12229584e-07  1.00090548e-09 
 5.70292370e+07  1.13054174e-07  9.46768879e-10 
 6.03236769e+07  1.13922748e-07  8.96071591e-10 
 6.38084285e+07  1.14843051e-07  8.48573721e-10 
 6.74944857e+07  1.15823144e-07  8.04054049e-10 
 7.13934775e+07  1.16871378e-07  7.62308118e-10 
 7.55177045e+07  1.17996369e-07  7.23146490e-10 
 7.98801781e+07  1.19206959e-07  6.86393174e-10 
 8.44946611e+07  1.20512168e-07  6.51884223e-10 
 8.93757115e+07  1.21921128e-07  6.19466494e-10 
 9.45387283e+07  1.23443010e-07  5.88996563e-10 
 1.00000000e+08  1.25086924e-07  5.60339804e-10 
