 frequency       HctmagdB        HscmagdB       
 1.00000000e+00 -4.34294265e-06 -4.61581761e-06 
 1.01099099e+02 -4.41640415e-02 -4.69238544e-02 
 2.01198198e+02 -1.72340351e-01 -1.82941436e-01 
 3.01297297e+02 -3.77371908e-01 -4.00011341e-01 
 4.01396396e+02 -6.48767568e-01 -6.86434486e-01 
 5.01495495e+02 -9.74300669e-01 -1.02871788e+00 
 6.01594595e+02 -1.34150340e+00 -1.41327500e+00 
 7.01693694e+02 -1.73877686e+00 -1.82764358e+00 
 8.01792793e+02 -2.15603644e+00 -2.26115082e+00 
 9.01891892e+02 -2.58495763e+00 -2.70512458e+00 
 1.00199099e+03 -3.01894671e+00 -3.15280768e+00 
 1.10209009e+03 -3.45295799e+00 -3.59911817e+00 
 1.20218919e+03 -3.88324839e+00 -4.04035681e+00 
 1.30228829e+03 -4.30712604e+00 -4.47392066e+00 
 1.40238739e+03 -4.72272224e+00 -4.89805129e+00 
 1.50248649e+03 -5.12879844e+00 -5.31162663e+00 
 1.60258559e+03 -5.52458994e+00 -5.71399569e+00 
 1.70268468e+03 -5.90968287e+00 -6.10485071e+00 
 1.80278378e+03 -6.28391931e+00 -6.48413001e+00 
 1.90288288e+03 -6.64732516e+00 -6.85194522e+00 
 2.00298198e+03 -7.00005588e+00 -7.20852732e+00 
 2.10308108e+03 -7.34235603e+00 -7.55418682e+00 
 2.20318018e+03 -7.67452934e+00 -7.88928482e+00 
 2.30327928e+03 -7.99691665e+00 -8.21421190e+00 
 2.40337838e+03 -8.30987987e+00 -8.52937306e+00 
 2.50347748e+03 -8.61379033e+00 -8.83517695e+00 
 2.60357658e+03 -8.90902053e+00 -9.13202836e+00 
 2.70367568e+03 -9.19593820e+00 -9.42032307e+00 
 2.80377477e+03 -9.47490235e+00 -9.70044443e+00 
 2.90387387e+03 -9.74626053e+00 -9.97276118e+00 
 3.00397297e+03 -1.00103472e+01 -1.02376262e+01 
 3.10407207e+03 -1.02674825e+01 -1.04953759e+01 
 3.20417117e+03 -1.05179723e+01 -1.07463301e+01 
 3.30427027e+03 -1.07621074e+01 -1.09907922e+01 
 3.40436937e+03 -1.10001644e+01 -1.12290496e+01 
 3.50446847e+03 -1.12324056e+01 -1.14613741e+01 
 3.60456757e+03 -1.14590796e+01 -1.16880229e+01 
 3.70466667e+03 -1.16804218e+01 -1.19092391e+01 
 3.80476577e+03 -1.18966553e+01 -1.21252522e+01 
 3.90486486e+03 -1.21079910e+01 -1.23362792e+01 
 4.00496396e+03 -1.23146287e+01 -1.25425252e+01 
 4.10506306e+03 -1.25167575e+01 -1.27441841e+01 
 4.20516216e+03 -1.27145565e+01 -1.29414390e+01 
 4.30526126e+03 -1.29081952e+01 -1.31344633e+01 
 4.40536036e+03 -1.30978342e+01 -1.33234212e+01 
 4.50545946e+03 -1.32836258e+01 -1.35084679e+01 
 4.60555856e+03 -1.34657143e+01 -1.36897506e+01 
 4.70565766e+03 -1.36442367e+01 -1.38674087e+01 
 4.80575676e+03 -1.38193230e+01 -1.40415746e+01 
 4.90585586e+03 -1.39910967e+01 -1.42123737e+01 
 5.00595495e+03 -1.41596750e+01 -1.43799251e+01 
 5.10605405e+03 -1.43251694e+01 -1.45443422e+01 
 5.20615315e+03 -1.44876861e+01 -1.47057326e+01 
 5.30625225e+03 -1.46473260e+01 -1.48641986e+01 
 5.40635135e+03 -1.48041854e+01 -1.50198377e+01 
 5.50645045e+03 -1.49583557e+01 -1.51727428e+01 
 5.60654955e+03 -1.51099245e+01 -1.53230024e+01 
 5.70664865e+03 -1.52589750e+01 -1.54707007e+01 
 5.80674775e+03 -1.54055869e+01 -1.56159182e+01 
 5.90684685e+03 -1.55498362e+01 -1.57587319e+01 
 6.00694595e+03 -1.56917954e+01 -1.58992151e+01 
 6.10704505e+03 -1.58315341e+01 -1.60374380e+01 
 6.20714414e+03 -1.59691186e+01 -1.61734677e+01 
 6.30724324e+03 -1.61046125e+01 -1.63073684e+01 
 6.40734234e+03 -1.62380768e+01 -1.64392015e+01 
 6.50744144e+03 -1.63695698e+01 -1.65690259e+01 
 6.60754054e+03 -1.64991475e+01 -1.66968982e+01 
 6.70763964e+03 -1.66268635e+01 -1.68228723e+01 
 6.80773874e+03 -1.67527693e+01 -1.69470002e+01 
 6.90783784e+03 -1.68769144e+01 -1.70693317e+01 
 7.00793694e+03 -1.69993463e+01 -1.71899148e+01 
 7.10803604e+03 -1.71201106e+01 -1.73087953e+01 
 7.20813514e+03 -1.72392511e+01 -1.74260175e+01 
 7.30823423e+03 -1.73568102e+01 -1.75416238e+01 
 7.40833333e+03 -1.74728284e+01 -1.76556553e+01 
 7.50843243e+03 -1.75873449e+01 -1.77681512e+01 
 7.60853153e+03 -1.77003973e+01 -1.78791495e+01 
 7.70863063e+03 -1.78120218e+01 -1.79886866e+01 
 7.80872973e+03 -1.79222536e+01 -1.80967979e+01 
 7.90882883e+03 -1.80311264e+01 -1.82035171e+01 
 8.00892793e+03 -1.81386727e+01 -1.83088771e+01 
 8.10902703e+03 -1.82449238e+01 -1.84129094e+01 
 8.20912613e+03 -1.83499103e+01 -1.85156446e+01 
 8.30922523e+03 -1.84536613e+01 -1.86171121e+01 
 8.40932432e+03 -1.85562051e+01 -1.87173403e+01 
 8.50942342e+03 -1.86575692e+01 -1.88163567e+01 
 8.60952252e+03 -1.87577800e+01 -1.89141880e+01 
 8.70962162e+03 -1.88568630e+01 -1.90108598e+01 
 8.80972072e+03 -1.89548431e+01 -1.91063969e+01 
 8.90981982e+03 -1.90517442e+01 -1.92008235e+01 
 9.00991892e+03 -1.91475894e+01 -1.92941629e+01 
 9.11001802e+03 -1.92424014e+01 -1.93864376e+01 
 9.21011712e+03 -1.93362017e+01 -1.94776694e+01 
 9.31021622e+03 -1.94290117e+01 -1.95678796e+01 
 9.41031532e+03 -1.95208516e+01 -1.96570887e+01 
 9.51041441e+03 -1.96117413e+01 -1.97453166e+01 
 9.61051351e+03 -1.97017001e+01 -1.98325825e+01 
 9.71061261e+03 -1.97907466e+01 -1.99189053e+01 
 9.81071171e+03 -1.98788990e+01 -2.00043031e+01 
 9.91081081e+03 -1.99661748e+01 -2.00887935e+01 
 1.00109099e+04 -2.00525911e+01 -2.01723937e+01 
 1.01110090e+04 -2.01381646e+01 -2.02551203e+01 
 1.02111081e+04 -2.02229113e+01 -2.03369895e+01 
 1.03112072e+04 -2.03068469e+01 -2.04180169e+01 
 1.04113063e+04 -2.03899866e+01 -2.04982180e+01 
 1.05114054e+04 -2.04723453e+01 -2.05776075e+01 
 1.06115045e+04 -2.05539373e+01 -2.06561998e+01 
 1.07116036e+04 -2.06347767e+01 -2.07340090e+01 
 1.08117027e+04 -2.07148771e+01 -2.08110488e+01 
 1.09118018e+04 -2.07942517e+01 -2.08873324e+01 
 1.10119009e+04 -2.08729136e+01 -2.09628729e+01 
 1.11120000e+04 -2.09508752e+01 -2.10376828e+01 
 1.12120991e+04 -2.10281489e+01 -2.11117744e+01 
 1.13121982e+04 -2.11047465e+01 -2.11851597e+01 
 1.14122973e+04 -2.11806797e+01 -2.12578503e+01 
 1.15123964e+04 -2.12559599e+01 -2.13298575e+01 
 1.16124955e+04 -2.13305981e+01 -2.14011925e+01 
 1.17125946e+04 -2.14046050e+01 -2.14718660e+01 
 1.18126937e+04 -2.14779912e+01 -2.15418886e+01 
 1.19127928e+04 -2.15507670e+01 -2.16112704e+01 
 1.20128919e+04 -2.16229422e+01 -2.16800217e+01 
 1.21129910e+04 -2.16945268e+01 -2.17481520e+01 
 1.22130901e+04 -2.17655301e+01 -2.18156709e+01 
 1.23131892e+04 -2.18359616e+01 -2.18825878e+01 
 1.24132883e+04 -2.19058303e+01 -2.19489117e+01 
 1.25133874e+04 -2.19751450e+01 -2.20146515e+01 
 1.26134865e+04 -2.20439144e+01 -2.20798159e+01 
 1.27135856e+04 -2.21121470e+01 -2.21444133e+01 
 1.28136847e+04 -2.21798511e+01 -2.22084520e+01 
 1.29137838e+04 -2.22470346e+01 -2.22719400e+01 
 1.30138829e+04 -2.23137056e+01 -2.23348853e+01 
 1.31139820e+04 -2.23798716e+01 -2.23972956e+01 
 1.32140811e+04 -2.24455404e+01 -2.24591784e+01 
 1.33141802e+04 -2.25107192e+01 -2.25205411e+01 
 1.34142793e+04 -2.25754152e+01 -2.25813910e+01 
 1.35143784e+04 -2.26396355e+01 -2.26417350e+01 
 1.36144775e+04 -2.27033871e+01 -2.27015801e+01 
 1.37145766e+04 -2.27666767e+01 -2.27609330e+01 
 1.38146757e+04 -2.28295108e+01 -2.28198003e+01 
 1.39147748e+04 -2.28918960e+01 -2.28781886e+01 
 1.40148739e+04 -2.29538387e+01 -2.29361041e+01 
 1.41149730e+04 -2.30153449e+01 -2.29935530e+01 
 1.42150721e+04 -2.30764208e+01 -2.30505415e+01 
 1.43151712e+04 -2.31370723e+01 -2.31070754e+01 
 1.44152703e+04 -2.31973053e+01 -2.31631606e+01 
 1.45153694e+04 -2.32571255e+01 -2.32188027e+01 
 1.46154685e+04 -2.33165384e+01 -2.32740074e+01 
 1.47155676e+04 -2.33755495e+01 -2.33287802e+01 
 1.48156667e+04 -2.34341643e+01 -2.33831263e+01 
 1.49157658e+04 -2.34923880e+01 -2.34370511e+01 
 1.50158649e+04 -2.35502256e+01 -2.34905597e+01 
 1.51159640e+04 -2.36076824e+01 -2.35436572e+01 
 1.52160631e+04 -2.36647633e+01 -2.35963484e+01 
 1.53161622e+04 -2.37214731e+01 -2.36486383e+01 
 1.54162613e+04 -2.37778166e+01 -2.37005317e+01 
 1.55163604e+04 -2.38337985e+01 -2.37520331e+01 
 1.56164595e+04 -2.38894233e+01 -2.38031472e+01 
 1.57165586e+04 -2.39446957e+01 -2.38538785e+01 
 1.58166577e+04 -2.39996199e+01 -2.39042313e+01 
 1.59167568e+04 -2.40542004e+01 -2.39542101e+01 
 1.60168559e+04 -2.41084414e+01 -2.40038190e+01 
 1.61169550e+04 -2.41623471e+01 -2.40530622e+01 
 1.62170541e+04 -2.42159215e+01 -2.41019438e+01 
 1.63171532e+04 -2.42691688e+01 -2.41504679e+01 
 1.64172523e+04 -2.43220929e+01 -2.41986383e+01 
 1.65173514e+04 -2.43746976e+01 -2.42464590e+01 
 1.66174505e+04 -2.44269868e+01 -2.42939337e+01 
 1.67175495e+04 -2.44789642e+01 -2.43410661e+01 
 1.68176486e+04 -2.45306336e+01 -2.43878600e+01 
 1.69177477e+04 -2.45819984e+01 -2.44343189e+01 
 1.70178468e+04 -2.46330624e+01 -2.44804465e+01 
 1.71179459e+04 -2.46838289e+01 -2.45262460e+01 
 1.72180450e+04 -2.47343014e+01 -2.45717211e+01 
 1.73181441e+04 -2.47844833e+01 -2.46168749e+01 
 1.74182432e+04 -2.48343780e+01 -2.46617109e+01 
 1.75183423e+04 -2.48839885e+01 -2.47062322e+01 
 1.76184414e+04 -2.49333183e+01 -2.47504422e+01 
 1.77185405e+04 -2.49823703e+01 -2.47943437e+01 
 1.78186396e+04 -2.50311478e+01 -2.48379401e+01 
 1.79187387e+04 -2.50796537e+01 -2.48812343e+01 
 1.80188378e+04 -2.51278911e+01 -2.49242292e+01 
 1.81189369e+04 -2.51758629e+01 -2.49669278e+01 
 1.82190360e+04 -2.52235720e+01 -2.50093331e+01 
 1.83191351e+04 -2.52710213e+01 -2.50514477e+01 
 1.84192342e+04 -2.53182135e+01 -2.50932745e+01 
 1.85193333e+04 -2.53651515e+01 -2.51348163e+01 
 1.86194324e+04 -2.54118379e+01 -2.51760758e+01 
 1.87195315e+04 -2.54582754e+01 -2.52170555e+01 
 1.88196306e+04 -2.55044667e+01 -2.52577581e+01 
 1.89197297e+04 -2.55504143e+01 -2.52981862e+01 
 1.90198288e+04 -2.55961208e+01 -2.53383423e+01 
 1.91199279e+04 -2.56415887e+01 -2.53782289e+01 
 1.92200270e+04 -2.56868205e+01 -2.54178485e+01 
 1.93201261e+04 -2.57318185e+01 -2.54572034e+01 
 1.94202252e+04 -2.57765853e+01 -2.54962960e+01 
 1.95203243e+04 -2.58211232e+01 -2.55351287e+01 
 1.96204234e+04 -2.58654344e+01 -2.55737037e+01 
 1.97205225e+04 -2.59095213e+01 -2.56120234e+01 
 1.98206216e+04 -2.59533861e+01 -2.56500900e+01 
 1.99207207e+04 -2.59970311e+01 -2.56879056e+01 
 2.00208198e+04 -2.60404584e+01 -2.57254724e+01 
 2.01209189e+04 -2.60836703e+01 -2.57627926e+01 
 2.02210180e+04 -2.61266687e+01 -2.57998682e+01 
 2.03211171e+04 -2.61694558e+01 -2.58367014e+01 
 2.04212162e+04 -2.62120337e+01 -2.58732941e+01 
 2.05213153e+04 -2.62544044e+01 -2.59096484e+01 
 2.06214144e+04 -2.62965699e+01 -2.59457662e+01 
 2.07215135e+04 -2.63385321e+01 -2.59816495e+01 
 2.08216126e+04 -2.63802931e+01 -2.60173003e+01 
 2.09217117e+04 -2.64218547e+01 -2.60527203e+01 
 2.10218108e+04 -2.64632189e+01 -2.60879115e+01 
 2.11219099e+04 -2.65043874e+01 -2.61228757e+01 
 2.12220090e+04 -2.65453622e+01 -2.61576147e+01 
 2.13221081e+04 -2.65861450e+01 -2.61921303e+01 
 2.14222072e+04 -2.66267376e+01 -2.62264243e+01 
 2.15223063e+04 -2.66671418e+01 -2.62604984e+01 
 2.16224054e+04 -2.67073594e+01 -2.62943543e+01 
 2.17225045e+04 -2.67473919e+01 -2.63279936e+01 
 2.18226036e+04 -2.67872412e+01 -2.63614182e+01 
 2.19227027e+04 -2.68269089e+01 -2.63946295e+01 
 2.20228018e+04 -2.68663966e+01 -2.64276292e+01 
 2.21229009e+04 -2.69057060e+01 -2.64604190e+01 
 2.22230000e+04 -2.69448387e+01 -2.64930003e+01 
 2.23230991e+04 -2.69837962e+01 -2.65253747e+01 
 2.24231982e+04 -2.70225801e+01 -2.65575438e+01 
 2.25232973e+04 -2.70611919e+01 -2.65895091e+01 
 2.26233964e+04 -2.70996332e+01 -2.66212721e+01 
 2.27234955e+04 -2.71379054e+01 -2.66528341e+01 
 2.28235946e+04 -2.71760100e+01 -2.66841968e+01 
 2.29236937e+04 -2.72139486e+01 -2.67153614e+01 
 2.30237928e+04 -2.72517224e+01 -2.67463294e+01 
 2.31238919e+04 -2.72893330e+01 -2.67771023e+01 
 2.32239910e+04 -2.73267818e+01 -2.68076813e+01 
 2.33240901e+04 -2.73640700e+01 -2.68380678e+01 
 2.34241892e+04 -2.74011992e+01 -2.68682633e+01 
 2.35242883e+04 -2.74381706e+01 -2.68982688e+01 
 2.36243874e+04 -2.74749856e+01 -2.69280859e+01 
 2.37244865e+04 -2.75116455e+01 -2.69577158e+01 
 2.38245856e+04 -2.75481516e+01 -2.69871597e+01 
 2.39246847e+04 -2.75845052e+01 -2.70164188e+01 
 2.40247838e+04 -2.76207075e+01 -2.70454946e+01 
 2.41248829e+04 -2.76567598e+01 -2.70743880e+01 
 2.42249820e+04 -2.76926634e+01 -2.71031004e+01 
 2.43250811e+04 -2.77284194e+01 -2.71316329e+01 
 2.44251802e+04 -2.77640290e+01 -2.71599868e+01 
 2.45252793e+04 -2.77994936e+01 -2.71881631e+01 
 2.46253784e+04 -2.78348141e+01 -2.72161630e+01 
 2.47254775e+04 -2.78699918e+01 -2.72439876e+01 
 2.48255766e+04 -2.79050279e+01 -2.72716382e+01 
 2.49256757e+04 -2.79399234e+01 -2.72991156e+01 
 2.50257748e+04 -2.79746795e+01 -2.73264212e+01 
 2.51258739e+04 -2.80092973e+01 -2.73535558e+01 
 2.52259730e+04 -2.80437779e+01 -2.73805206e+01 
 2.53260721e+04 -2.80781224e+01 -2.74073166e+01 
 2.54261712e+04 -2.81123319e+01 -2.74339449e+01 
 2.55262703e+04 -2.81464073e+01 -2.74604065e+01 
 2.56263694e+04 -2.81803498e+01 -2.74867024e+01 
 2.57264685e+04 -2.82141603e+01 -2.75128335e+01 
 2.58265676e+04 -2.82478400e+01 -2.75388010e+01 
 2.59266667e+04 -2.82813897e+01 -2.75646056e+01 
 2.60267658e+04 -2.83148106e+01 -2.75902485e+01 
 2.61268649e+04 -2.83481036e+01 -2.76157306e+01 
 2.62269640e+04 -2.83812696e+01 -2.76410527e+01 
 2.63270631e+04 -2.84143096e+01 -2.76662158e+01 
 2.64271622e+04 -2.84472246e+01 -2.76912209e+01 
 2.65272613e+04 -2.84800155e+01 -2.77160688e+01 
 2.66273604e+04 -2.85126833e+01 -2.77407605e+01 
 2.67274595e+04 -2.85452289e+01 -2.77652967e+01 
 2.68275586e+04 -2.85776531e+01 -2.77896785e+01 
 2.69276577e+04 -2.86099569e+01 -2.78139066e+01 
 2.70277568e+04 -2.86421411e+01 -2.78379819e+01 
 2.71278559e+04 -2.86742068e+01 -2.78619052e+01 
 2.72279550e+04 -2.87061546e+01 -2.78856775e+01 
 2.73280541e+04 -2.87379855e+01 -2.79092994e+01 
 2.74281532e+04 -2.87697003e+01 -2.79327718e+01 
 2.75282523e+04 -2.88013000e+01 -2.79560956e+01 
 2.76283514e+04 -2.88327852e+01 -2.79792714e+01 
 2.77284505e+04 -2.88641568e+01 -2.80023002e+01 
 2.78285495e+04 -2.88954157e+01 -2.80251826e+01 
 2.79286486e+04 -2.89265627e+01 -2.80479194e+01 
 2.80287477e+04 -2.89575985e+01 -2.80705115e+01 
 2.81288468e+04 -2.89885239e+01 -2.80929594e+01 
 2.82289459e+04 -2.90193398e+01 -2.81152641e+01 
 2.83290450e+04 -2.90500469e+01 -2.81374262e+01 
 2.84291441e+04 -2.90806459e+01 -2.81594464e+01 
 2.85292432e+04 -2.91111376e+01 -2.81813254e+01 
 2.86293423e+04 -2.91415228e+01 -2.82030641e+01 
 2.87294414e+04 -2.91718022e+01 -2.82246629e+01 
 2.88295405e+04 -2.92019766e+01 -2.82461228e+01 
 2.89296396e+04 -2.92320466e+01 -2.82674442e+01 
 2.90297387e+04 -2.92620129e+01 -2.82886280e+01 
 2.91298378e+04 -2.92918764e+01 -2.83096748e+01 
 2.92299369e+04 -2.93216377e+01 -2.83305851e+01 
 2.93300360e+04 -2.93512975e+01 -2.83513598e+01 
 2.94301351e+04 -2.93808564e+01 -2.83719994e+01 
 2.95302342e+04 -2.94103152e+01 -2.83925046e+01 
 2.96303333e+04 -2.94396746e+01 -2.84128760e+01 
 2.97304324e+04 -2.94689351e+01 -2.84331142e+01 
 2.98305315e+04 -2.94980976e+01 -2.84532199e+01 
 2.99306306e+04 -2.95271625e+01 -2.84731936e+01 
 3.00307297e+04 -2.95561307e+01 -2.84930360e+01 
 3.01308288e+04 -2.95850026e+01 -2.85127476e+01 
 3.02309279e+04 -2.96137790e+01 -2.85323291e+01 
 3.03310270e+04 -2.96424605e+01 -2.85517810e+01 
 3.04311261e+04 -2.96710477e+01 -2.85711040e+01 
 3.05312252e+04 -2.96995412e+01 -2.85902985e+01 
 3.06313243e+04 -2.97279416e+01 -2.86093652e+01 
 3.07314234e+04 -2.97562496e+01 -2.86283045e+01 
 3.08315225e+04 -2.97844657e+01 -2.86471171e+01 
 3.09316216e+04 -2.98125906e+01 -2.86658036e+01 
 3.10317207e+04 -2.98406248e+01 -2.86843643e+01 
 3.11318198e+04 -2.98685689e+01 -2.87028000e+01 
 3.12319189e+04 -2.98964234e+01 -2.87211110e+01 
 3.13320180e+04 -2.99241890e+01 -2.87392980e+01 
 3.14321171e+04 -2.99518662e+01 -2.87573614e+01 
 3.15322162e+04 -2.99794556e+01 -2.87753018e+01 
 3.16323153e+04 -3.00069578e+01 -2.87931197e+01 
 3.17324144e+04 -3.00343732e+01 -2.88108155e+01 
 3.18325135e+04 -3.00617024e+01 -2.88283898e+01 
 3.19326126e+04 -3.00889460e+01 -2.88458430e+01 
 3.20327117e+04 -3.01161045e+01 -2.88631757e+01 
 3.21328108e+04 -3.01431785e+01 -2.88803882e+01 
 3.22329099e+04 -3.01701684e+01 -2.88974812e+01 
 3.23330090e+04 -3.01970747e+01 -2.89144550e+01 
 3.24331081e+04 -3.02238981e+01 -2.89313101e+01 
 3.25332072e+04 -3.02506389e+01 -2.89480470e+01 
 3.26333063e+04 -3.02772978e+01 -2.89646661e+01 
 3.27334054e+04 -3.03038751e+01 -2.89811680e+01 
 3.28335045e+04 -3.03303715e+01 -2.89975529e+01 
 3.29336036e+04 -3.03567873e+01 -2.90138214e+01 
 3.30337027e+04 -3.03831232e+01 -2.90299739e+01 
 3.31338018e+04 -3.04093795e+01 -2.90460108e+01 
 3.32339009e+04 -3.04355567e+01 -2.90619326e+01 
 3.33340000e+04 -3.04616554e+01 -2.90777396e+01 
 3.34340991e+04 -3.04876759e+01 -2.90934323e+01 
 3.35341982e+04 -3.05136188e+01 -2.91090111e+01 
 3.36342973e+04 -3.05394845e+01 -2.91244765e+01 
 3.37343964e+04 -3.05652735e+01 -2.91398287e+01 
 3.38344955e+04 -3.05909862e+01 -2.91550682e+01 
 3.39345946e+04 -3.06166230e+01 -2.91701955e+01 
 3.40346937e+04 -3.06421845e+01 -2.91852108e+01 
 3.41347928e+04 -3.06676711e+01 -2.92001146e+01 
 3.42348919e+04 -3.06930831e+01 -2.92149072e+01 
 3.43349910e+04 -3.07184211e+01 -2.92295891e+01 
 3.44350901e+04 -3.07436855e+01 -2.92441606e+01 
 3.45351892e+04 -3.07688766e+01 -2.92586221e+01 
 3.46352883e+04 -3.07939949e+01 -2.92729739e+01 
 3.47353874e+04 -3.08190409e+01 -2.92872164e+01 
 3.48354865e+04 -3.08440150e+01 -2.93013499e+01 
 3.49355856e+04 -3.08689174e+01 -2.93153749e+01 
 3.50356847e+04 -3.08937488e+01 -2.93292916e+01 
 3.51357838e+04 -3.09185094e+01 -2.93431005e+01 
 3.52358829e+04 -3.09431997e+01 -2.93568017e+01 
 3.53359820e+04 -3.09678201e+01 -2.93703958e+01 
 3.54360811e+04 -3.09923709e+01 -2.93838830e+01 
 3.55361802e+04 -3.10168526e+01 -2.93972636e+01 
 3.56362793e+04 -3.10412655e+01 -2.94105380e+01 
 3.57363784e+04 -3.10656101e+01 -2.94237065e+01 
 3.58364775e+04 -3.10898867e+01 -2.94367695e+01 
 3.59365766e+04 -3.11140956e+01 -2.94497271e+01 
 3.60366757e+04 -3.11382374e+01 -2.94625798e+01 
 3.61367748e+04 -3.11623122e+01 -2.94753279e+01 
 3.62368739e+04 -3.11863206e+01 -2.94879716e+01 
 3.63369730e+04 -3.12102628e+01 -2.95005113e+01 
 3.64370721e+04 -3.12341393e+01 -2.95129473e+01 
 3.65371712e+04 -3.12579504e+01 -2.95252798e+01 
 3.66372703e+04 -3.12816964e+01 -2.95375092e+01 
 3.67373694e+04 -3.13053778e+01 -2.95496357e+01 
 3.68374685e+04 -3.13289948e+01 -2.95616597e+01 
 3.69375676e+04 -3.13525478e+01 -2.95735814e+01 
 3.70376667e+04 -3.13760371e+01 -2.95854010e+01 
 3.71377658e+04 -3.13994632e+01 -2.95971189e+01 
 3.72378649e+04 -3.14228263e+01 -2.96087354e+01 
 3.73379640e+04 -3.14461267e+01 -2.96202507e+01 
 3.74380631e+04 -3.14693649e+01 -2.96316651e+01 
 3.75381622e+04 -3.14925411e+01 -2.96429788e+01 
 3.76382613e+04 -3.15156556e+01 -2.96541921e+01 
 3.77383604e+04 -3.15387089e+01 -2.96653053e+01 
 3.78384595e+04 -3.15617012e+01 -2.96763186e+01 
 3.79385586e+04 -3.15846328e+01 -2.96872323e+01 
 3.80386577e+04 -3.16075041e+01 -2.96980466e+01 
 3.81387568e+04 -3.16303153e+01 -2.97087618e+01 
 3.82388559e+04 -3.16530669e+01 -2.97193781e+01 
 3.83389550e+04 -3.16757590e+01 -2.97298957e+01 
 3.84390541e+04 -3.16983921e+01 -2.97403149e+01 
 3.85391532e+04 -3.17209664e+01 -2.97506360e+01 
 3.86392523e+04 -3.17434822e+01 -2.97608591e+01 
 3.87393514e+04 -3.17659398e+01 -2.97709845e+01 
 3.88394505e+04 -3.17883395e+01 -2.97810124e+01 
 3.89395495e+04 -3.18106817e+01 -2.97909431e+01 
 3.90396486e+04 -3.18329666e+01 -2.98007767e+01 
 3.91397477e+04 -3.18551945e+01 -2.98105135e+01 
 3.92398468e+04 -3.18773657e+01 -2.98201537e+01 
 3.93399459e+04 -3.18994805e+01 -2.98296975e+01 
 3.94400450e+04 -3.19215391e+01 -2.98391452e+01 
 3.95401441e+04 -3.19435419e+01 -2.98484968e+01 
 3.96402432e+04 -3.19654892e+01 -2.98577527e+01 
 3.97403423e+04 -3.19873811e+01 -2.98669131e+01 
 3.98404414e+04 -3.20092181e+01 -2.98759781e+01 
