 frequency       HctmagdB        HscmagdB       
 1.00000000e+01 -4.34272769e-04 -4.61557466e-04 
 1.00925289e+01 -4.42346091e-04 -4.70137996e-04 
 1.01859139e+01 -4.50569492e-04 -4.78878031e-04 
 1.02801630e+01 -4.58945762e-04 -4.87780538e-04 
 1.03752842e+01 -4.67477742e-04 -4.96848537e-04 
 1.04712855e+01 -4.76168325e-04 -5.06085102e-04 
 1.05681751e+01 -4.85020461e-04 -5.15493368e-04 
 1.06659612e+01 -4.94037152e-04 -5.25076525e-04 
 1.07646521e+01 -5.03221456e-04 -5.34837825e-04 
 1.08642562e+01 -5.12576489e-04 -5.44780579e-04 
 1.09647820e+01 -5.22105425e-04 -5.54908159e-04 
 1.10662378e+01 -5.31811495e-04 -5.65224000e-04 
 1.11686325e+01 -5.41697992e-04 -5.75731602e-04 
 1.12719746e+01 -5.51768270e-04 -5.86434528e-04 
 1.13762729e+01 -5.62025745e-04 -5.97336410e-04 
 1.14815362e+01 -5.72473895e-04 -6.08440944e-04 
 1.15877736e+01 -5.83116265e-04 -6.19751899e-04 
 1.16949939e+01 -5.93956464e-04 -6.31273109e-04 
 1.18032064e+01 -6.04998170e-04 -6.43008483e-04 
 1.19124201e+01 -6.16245128e-04 -6.54962001e-04 
 1.20226443e+01 -6.27701152e-04 -6.67137718e-04 
 1.21338885e+01 -6.39370129e-04 -6.79539763e-04 
 1.22461620e+01 -6.51256016e-04 -6.92172343e-04 
 1.23594743e+01 -6.63362845e-04 -7.05039743e-04 
 1.24738351e+01 -6.75694721e-04 -7.18146326e-04 
 1.25892541e+01 -6.88255829e-04 -7.31496538e-04 
 1.27057411e+01 -7.01050427e-04 -7.45094907e-04 
 1.28233058e+01 -7.14082856e-04 -7.58946044e-04 
 1.29419584e+01 -7.27357536e-04 -7.73054648e-04 
 1.30617089e+01 -7.40878969e-04 -7.87425503e-04 
 1.31825674e+01 -7.54651741e-04 -8.02063484e-04 
 1.33045442e+01 -7.68680523e-04 -8.16973554e-04 
 1.34276496e+01 -7.82970072e-04 -8.32160771e-04 
 1.35518941e+01 -7.97525236e-04 -8.47630284e-04 
 1.36772883e+01 -8.12350951e-04 -8.63387340e-04 
 1.38038426e+01 -8.27452244e-04 -8.79437283e-04 
 1.39315680e+01 -8.42834237e-04 -8.95785556e-04 
 1.40604752e+01 -8.58502147e-04 -9.12437702e-04 
 1.41905752e+01 -8.74461287e-04 -9.29399369e-04 
 1.43218790e+01 -8.90717069e-04 -9.46676310e-04 
 1.44543977e+01 -9.07275006e-04 -9.64274381e-04 
 1.45881426e+01 -9.24140713e-04 -9.82199552e-04 
 1.47231250e+01 -9.41319910e-04 -1.00045790e-03 
 1.48593564e+01 -9.58818422e-04 -1.01905562e-03 
 1.49968484e+01 -9.76642183e-04 -1.03799901e-03 
 1.51356125e+01 -9.94797237e-04 -1.05729450e-03 
 1.52756606e+01 -1.01328974e-03 -1.07694864e-03 
 1.54170045e+01 -1.03212597e-03 -1.09696808e-03 
 1.55596563e+01 -1.05131230e-03 -1.11735961e-03 
 1.57036280e+01 -1.07085524e-03 -1.13813015e-03 
 1.58489319e+01 -1.09076143e-03 -1.15928675e-03 
 1.59955803e+01 -1.11103760e-03 -1.18083657e-03 
 1.61435856e+01 -1.13169064e-03 -1.20278692e-03 
 1.62929603e+01 -1.15272755e-03 -1.22514524e-03 
 1.64437172e+01 -1.17415546e-03 -1.24791911e-03 
 1.65958691e+01 -1.19598163e-03 -1.27111627e-03 
 1.67494288e+01 -1.21821348e-03 -1.29474456e-03 
 1.69044093e+01 -1.24085852e-03 -1.31881200e-03 
 1.70608239e+01 -1.26392445e-03 -1.34332675e-03 
 1.72186857e+01 -1.28741907e-03 -1.36829712e-03 
 1.73780083e+01 -1.31135037e-03 -1.39373158e-03 
 1.75388050e+01 -1.33572644e-03 -1.41963875e-03 
 1.77010896e+01 -1.36055556e-03 -1.44602741e-03 
 1.78648757e+01 -1.38584614e-03 -1.47290650e-03 
 1.80301774e+01 -1.41160676e-03 -1.50028515e-03 
 1.81970086e+01 -1.43784614e-03 -1.52817262e-03 
 1.83653834e+01 -1.46457319e-03 -1.55657838e-03 
 1.85353162e+01 -1.49179697e-03 -1.58551205e-03 
 1.87068214e+01 -1.51952669e-03 -1.61498343e-03 
 1.88799135e+01 -1.54777177e-03 -1.64500253e-03 
 1.90546072e+01 -1.57654177e-03 -1.67557950e-03 
 1.92309173e+01 -1.60584645e-03 -1.70672473e-03 
 1.94088588e+01 -1.63569575e-03 -1.73844876e-03 
 1.95884467e+01 -1.66609977e-03 -1.77076234e-03 
 1.97696964e+01 -1.69706882e-03 -1.80367643e-03 
 1.99526231e+01 -1.72861341e-03 -1.83720218e-03 
 2.01372425e+01 -1.76074422e-03 -1.87135096e-03 
 2.03235701e+01 -1.79347214e-03 -1.90613433e-03 
 2.05116218e+01 -1.82680826e-03 -1.94156409e-03 
 2.07014135e+01 -1.86076389e-03 -1.97765224e-03 
 2.08929613e+01 -1.89535053e-03 -2.01441101e-03 
 2.10862815e+01 -1.93057989e-03 -2.05185285e-03 
 2.12813905e+01 -1.96646393e-03 -2.08999046e-03 
 2.14783047e+01 -2.00301479e-03 -2.12883676e-03 
 2.16770410e+01 -2.04024487e-03 -2.16840491e-03 
 2.18776162e+01 -2.07816678e-03 -2.20870831e-03 
 2.20800473e+01 -2.11679337e-03 -2.24976062e-03 
 2.22843515e+01 -2.15613773e-03 -2.29157575e-03 
 2.24905461e+01 -2.19621319e-03 -2.33416787e-03 
 2.26986485e+01 -2.23703333e-03 -2.37755141e-03 
 2.29086765e+01 -2.27861198e-03 -2.42174106e-03 
 2.31206479e+01 -2.32096322e-03 -2.46675180e-03 
 2.33345806e+01 -2.36410140e-03 -2.51259886e-03 
 2.35504928e+01 -2.40804115e-03 -2.55929780e-03 
 2.37684029e+01 -2.45279734e-03 -2.60686441e-03 
 2.39883292e+01 -2.49838513e-03 -2.65531481e-03 
 2.42102905e+01 -2.54481997e-03 -2.70466542e-03 
 2.44343055e+01 -2.59211759e-03 -2.75493295e-03 
 2.46603934e+01 -2.64029401e-03 -2.80613443e-03 
 2.48885732e+01 -2.68936554e-03 -2.85828719e-03 
 2.51188643e+01 -2.73934881e-03 -2.91140889e-03 
 2.53512863e+01 -2.79026076e-03 -2.96551754e-03 
 2.55858589e+01 -2.84211861e-03 -3.02063145e-03 
 2.58226019e+01 -2.89493993e-03 -3.07676928e-03 
 2.60615355e+01 -2.94874261e-03 -3.13395004e-03 
 2.63026799e+01 -3.00354488e-03 -3.19219310e-03 
 2.65460556e+01 -3.05936528e-03 -3.25151818e-03 
 2.67916832e+01 -3.11622273e-03 -3.31194536e-03 
 2.70395836e+01 -3.17413647e-03 -3.37349509e-03 
 2.72897778e+01 -3.23312611e-03 -3.43618823e-03 
 2.75422870e+01 -3.29321163e-03 -3.50004599e-03 
 2.77971327e+01 -3.35441337e-03 -3.56508998e-03 
 2.80543364e+01 -3.41675204e-03 -3.63134224e-03 
 2.83139200e+01 -3.48024876e-03 -3.69882517e-03 
 2.85759054e+01 -3.54492501e-03 -3.76756162e-03 
 2.88403150e+01 -3.61080270e-03 -3.83757487e-03 
 2.91071712e+01 -3.67790412e-03 -3.90888859e-03 
 2.93764965e+01 -3.74625198e-03 -3.98152694e-03 
 2.96483139e+01 -3.81586941e-03 -4.05551448e-03 
 2.99226464e+01 -3.88677999e-03 -4.13087625e-03 
 3.01995172e+01 -3.95900770e-03 -4.20763776e-03 
 3.04789499e+01 -4.03257698e-03 -4.28582498e-03 
 3.07609681e+01 -4.10751274e-03 -4.36546435e-03 
 3.10455959e+01 -4.18384033e-03 -4.44658284e-03 
 3.13328572e+01 -4.26158558e-03 -4.52920786e-03 
 3.16227766e+01 -4.34077479e-03 -4.61336739e-03 
 3.19153786e+01 -4.42143476e-03 -4.69908988e-03 
 3.22106879e+01 -4.50359276e-03 -4.78640433e-03 
 3.25087297e+01 -4.58727660e-03 -4.87534027e-03 
 3.28095293e+01 -4.67251457e-03 -4.96592778e-03 
 3.31131121e+01 -4.75933552e-03 -5.05819749e-03 
 3.34195040e+01 -4.84776881e-03 -5.15218061e-03 
 3.37287309e+01 -4.93784435e-03 -5.24790892e-03 
 3.40408190e+01 -5.02959259e-03 -5.34541477e-03 
 3.43557948e+01 -5.12304457e-03 -5.44473114e-03 
 3.46736850e+01 -5.21823188e-03 -5.54589161e-03 
 3.49945167e+01 -5.31518671e-03 -5.64893036e-03 
 3.53183170e+01 -5.41394184e-03 -5.75388224e-03 
 3.56451133e+01 -5.51453066e-03 -5.86078270e-03 
 3.59749335e+01 -5.61698717e-03 -5.96966789e-03 
 3.63078055e+01 -5.72134600e-03 -6.08057459e-03 
 3.66437575e+01 -5.82764243e-03 -6.19354029e-03 
 3.69828180e+01 -5.93591238e-03 -6.30860316e-03 
 3.73250158e+01 -6.04619245e-03 -6.42580207e-03 
 3.76703799e+01 -6.15851990e-03 -6.54517662e-03 
 3.80189396e+01 -6.27293268e-03 -6.66676713e-03 
 3.83707245e+01 -6.38946946e-03 -6.79061468e-03 
 3.87257645e+01 -6.50816960e-03 -6.91676109e-03 
 3.90840896e+01 -6.62907321e-03 -7.04524896e-03 
 3.94457302e+01 -6.75222113e-03 -7.17612170e-03 
 3.98107171e+01 -6.87765494e-03 -7.30942348e-03 
 4.01790811e+01 -7.00541702e-03 -7.44519932e-03 
 4.05508535e+01 -7.13555051e-03 -7.58349506e-03 
 4.09260660e+01 -7.26809936e-03 -7.72435737e-03 
 4.13047502e+01 -7.40310831e-03 -7.86783382e-03 
 4.16869383e+01 -7.54062295e-03 -8.01397281e-03 
 4.20726628e+01 -7.68068970e-03 -8.16282367e-03 
 4.24619564e+01 -7.82335585e-03 -8.31443662e-03 
 4.28548520e+01 -7.96866954e-03 -8.46886283e-03 
 4.32513831e+01 -8.11667981e-03 -8.62615439e-03 
 4.36515832e+01 -8.26743661e-03 -8.78636435e-03 
 4.40554864e+01 -8.42099082e-03 -8.94954676e-03 
 4.44631267e+01 -8.57739422e-03 -9.11575665e-03 
 4.48745390e+01 -8.73669960e-03 -9.28505007e-03 
 4.52897580e+01 -8.89896067e-03 -9.45748410e-03 
 4.57088190e+01 -9.06423217e-03 -9.63311688e-03 
 4.61317575e+01 -9.23256983e-03 -9.81200761e-03 
 4.65586094e+01 -9.40403041e-03 -9.99421658e-03 
 4.69894109e+01 -9.57867173e-03 -1.01798052e-02 
 4.74241985e+01 -9.75655265e-03 -1.03688360e-02 
 4.78630092e+01 -9.93773313e-03 -1.05613727e-02 
 4.83058802e+01 -1.01222742e-02 -1.07574802e-02 
 4.87528490e+01 -1.03102382e-02 -1.09572244e-02 
 4.92039536e+01 -1.05016882e-02 -1.11606727e-02 
 4.96592321e+01 -1.06966889e-02 -1.13678937e-02 
 5.01187234e+01 -1.08953060e-02 -1.15789569e-02 
 5.05824662e+01 -1.10976063e-02 -1.17939336e-02 
 5.10505000e+01 -1.13036579e-02 -1.20128960e-02 
 5.15228645e+01 -1.15135303e-02 -1.22359179e-02 
 5.19995997e+01 -1.17272940e-02 -1.24630743e-02 
 5.24807460e+01 -1.19450212e-02 -1.26944416e-02 
 5.29663444e+01 -1.21667849e-02 -1.29300977e-02 
 5.34564359e+01 -1.23926599e-02 -1.31701218e-02 
 5.39510623e+01 -1.26227221e-02 -1.34145947e-02 
 5.44502653e+01 -1.28570490e-02 -1.36635985e-02 
 5.49540874e+01 -1.30957194e-02 -1.39172169e-02 
 5.54625713e+01 -1.33388135e-02 -1.41755352e-02 
 5.59757601e+01 -1.35864130e-02 -1.44386402e-02 
 5.64936975e+01 -1.38386013e-02 -1.47066203e-02 
 5.70164272e+01 -1.40954631e-02 -1.49795655e-02 
 5.75439937e+01 -1.43570846e-02 -1.52575674e-02 
 5.80764418e+01 -1.46235538e-02 -1.55407196e-02 
 5.86138165e+01 -1.48949603e-02 -1.58291169e-02 
 5.91561634e+01 -1.51713952e-02 -1.61228562e-02 
 5.97035287e+01 -1.54529513e-02 -1.64220361e-02 
 6.02559586e+01 -1.57397231e-02 -1.67267570e-02 
 6.08135001e+01 -1.60318069e-02 -1.70371211e-02 
 6.13762005e+01 -1.63293008e-02 -1.73532324e-02 
 6.19441075e+01 -1.66323046e-02 -1.76751971e-02 
 6.25172693e+01 -1.69409199e-02 -1.80031230e-02 
 6.30957344e+01 -1.72552503e-02 -1.83371199e-02 
 6.36795521e+01 -1.75754011e-02 -1.86773000e-02 
 6.42687717e+01 -1.79014797e-02 -1.90237770e-02 
 6.48634434e+01 -1.82335954e-02 -1.93766671e-02 
 6.54636174e+01 -1.85718594e-02 -1.97360884e-02 
 6.60693448e+01 -1.89163852e-02 -2.01021613e-02 
 6.66806769e+01 -1.92672881e-02 -2.04750082e-02 
 6.72976656e+01 -1.96246856e-02 -2.08547540e-02 
 6.79203633e+01 -1.99886974e-02 -2.12415256e-02 
 6.85488226e+01 -2.03594453e-02 -2.16354524e-02 
 6.91830971e+01 -2.07370534e-02 -2.20366660e-02 
 6.98232404e+01 -2.11216480e-02 -2.24453007e-02 
 7.04693069e+01 -2.15133578e-02 -2.28614929e-02 
 7.11213514e+01 -2.19123136e-02 -2.32853817e-02 
 7.17794291e+01 -2.23186489e-02 -2.37171086e-02 
 7.24435960e+01 -2.27324995e-02 -2.41568177e-02 
 7.31139083e+01 -2.31540036e-02 -2.46046559e-02 
 7.37904230e+01 -2.35833020e-02 -2.50607725e-02 
 7.44731974e+01 -2.40205380e-02 -2.55253197e-02 
 7.51622894e+01 -2.44658576e-02 -2.59984523e-02 
 7.58577575e+01 -2.49194094e-02 -2.64803281e-02 
 7.65596607e+01 -2.53813446e-02 -2.69711076e-02 
 7.72680585e+01 -2.58518174e-02 -2.74709544e-02 
 7.79830111e+01 -2.63309845e-02 -2.79800349e-02 
 7.87045790e+01 -2.68190056e-02 -2.84985184e-02 
 7.94328235e+01 -2.73160433e-02 -2.90265777e-02 
 8.01678063e+01 -2.78222632e-02 -2.95643882e-02 
 8.09095899e+01 -2.83378338e-02 -3.01121289e-02 
 8.16582371e+01 -2.88629267e-02 -3.06699818e-02 
 8.24138115e+01 -2.93977164e-02 -3.12381323e-02 
 8.31763771e+01 -2.99423810e-02 -3.18167690e-02 
 8.39459987e+01 -3.04971014e-02 -3.24060841e-02 
 8.47227414e+01 -3.10620620e-02 -3.30062731e-02 
 8.55066713e+01 -3.16374505e-02 -3.36175351e-02 
 8.62978548e+01 -3.22234579e-02 -3.42400729e-02 
 8.70963590e+01 -3.28202786e-02 -3.48740927e-02 
 8.79022517e+01 -3.34281109e-02 -3.55198046e-02 
 8.87156012e+01 -3.40471561e-02 -3.61774225e-02 
 8.95364766e+01 -3.46776195e-02 -3.68471640e-02 
 9.03649474e+01 -3.53197100e-02 -3.75292506e-02 
 9.12010839e+01 -3.59736403e-02 -3.82239080e-02 
 9.20449572e+01 -3.66396268e-02 -3.89313658e-02 
 9.28966387e+01 -3.73178900e-02 -3.96518577e-02 
 9.37562007e+01 -3.80086542e-02 -4.03856216e-02 
 9.46237161e+01 -3.87121477e-02 -4.11328996e-02 
 9.54992586e+01 -3.94286030e-02 -4.18939383e-02 
 9.63829024e+01 -4.01582567e-02 -4.26689887e-02 
 9.72747224e+01 -4.09013496e-02 -4.34583060e-02 
 9.81747943e+01 -4.16581270e-02 -4.42621503e-02 
 9.90831945e+01 -4.24288384e-02 -4.50807862e-02 
 1.00000000e+02 -4.32137378e-02 -4.59144829e-02 
 1.00925289e+02 -4.40130838e-02 -4.67635146e-02 
 1.01859139e+02 -4.48271395e-02 -4.76281603e-02 
 1.02801630e+02 -4.56561727e-02 -4.85087038e-02 
 1.03752842e+02 -4.65004562e-02 -4.94054343e-02 
 1.04712855e+02 -4.73602674e-02 -5.03186458e-02 
 1.05681751e+02 -4.82358887e-02 -5.12486377e-02 
 1.06659612e+02 -4.91276076e-02 -5.21957146e-02 
 1.07646521e+02 -5.00357165e-02 -5.31601866e-02 
 1.08642562e+02 -5.09605133e-02 -5.41423692e-02 
 1.09647820e+02 -5.19023010e-02 -5.51425834e-02 
 1.10662378e+02 -5.28613878e-02 -5.61611561e-02 
 1.11686325e+02 -5.38380878e-02 -5.71984198e-02 
 1.12719746e+02 -5.48327201e-02 -5.82547129e-02 
 1.13762729e+02 -5.58456099e-02 -5.93303797e-02 
 1.14815362e+02 -5.68770880e-02 -6.04257706e-02 
 1.15877736e+02 -5.79274909e-02 -6.15412423e-02 
 1.16949939e+02 -5.89971611e-02 -6.26771575e-02 
 1.18032064e+02 -6.00864471e-02 -6.38338853e-02 
 1.19124201e+02 -6.11957037e-02 -6.50118015e-02 
 1.20226443e+02 -6.23252917e-02 -6.62112882e-02 
 1.21338885e+02 -6.34755784e-02 -6.74327343e-02 
 1.22461620e+02 -6.46469373e-02 -6.86765355e-02 
 1.23594743e+02 -6.58397488e-02 -6.99430944e-02 
 1.24738351e+02 -6.70543995e-02 -7.12328205e-02 
 1.25892541e+02 -6.82912831e-02 -7.25461305e-02 
 1.27057411e+02 -6.95508001e-02 -7.38834483e-02 
 1.28233058e+02 -7.08333578e-02 -7.52452053e-02 
 1.29419584e+02 -7.21393708e-02 -7.66318401e-02 
 1.30617089e+02 -7.34692607e-02 -7.80437990e-02 
 1.31825674e+02 -7.48234566e-02 -7.94815362e-02 
 1.33045442e+02 -7.62023949e-02 -8.09455134e-02 
 1.34276496e+02 -7.76065196e-02 -8.24362005e-02 
 1.35518941e+02 -7.90362823e-02 -8.39540754e-02 
 1.36772883e+02 -8.04921426e-02 -8.54996242e-02 
 1.38038426e+02 -8.19745678e-02 -8.70733412e-02 
 1.39315680e+02 -8.34840334e-02 -8.86757294e-02 
 1.40604752e+02 -8.50210228e-02 -9.03073002e-02 
 1.41905752e+02 -8.65860279e-02 -9.19685739e-02 
 1.43218790e+02 -8.81795491e-02 -9.36600795e-02 
 1.44543977e+02 -8.98020952e-02 -9.53823551e-02 
 1.45881426e+02 -9.14541837e-02 -9.71359479e-02 
 1.47231250e+02 -9.31363410e-02 -9.89214143e-02 
 1.48593564e+02 -9.48491023e-02 -1.00739320e-01 
 1.49968484e+02 -9.65930121e-02 -1.02590241e-01 
 1.51356125e+02 -9.83686240e-02 -1.04474762e-01 
 1.52756606e+02 -1.00176501e-01 -1.06393478e-01 
 1.54170045e+02 -1.02017215e-01 -1.08346994e-01 
 1.55596563e+02 -1.03891350e-01 -1.10335924e-01 
 1.57036280e+02 -1.05799496e-01 -1.12360896e-01 
 1.58489319e+02 -1.07742255e-01 -1.14422543e-01 
 1.59955803e+02 -1.09720240e-01 -1.16521513e-01 
 1.61435856e+02 -1.11734073e-01 -1.18658463e-01 
 1.62929603e+02 -1.13784386e-01 -1.20834060e-01 
 1.64437172e+02 -1.15871823e-01 -1.23048985e-01 
 1.65958691e+02 -1.17997037e-01 -1.25303926e-01 
 1.67494288e+02 -1.20160693e-01 -1.27599586e-01 
 1.69044093e+02 -1.22363467e-01 -1.29936678e-01 
 1.70608239e+02 -1.24606045e-01 -1.32315926e-01 
 1.72186857e+02 -1.26889127e-01 -1.34738068e-01 
 1.73780083e+02 -1.29213420e-01 -1.37203852e-01 
 1.75388050e+02 -1.31579647e-01 -1.39714039e-01 
 1.77010896e+02 -1.33988542e-01 -1.42269402e-01 
 1.78648757e+02 -1.36440848e-01 -1.44870728e-01 
 1.80301774e+02 -1.38937323e-01 -1.47518813e-01 
 1.81970086e+02 -1.41478736e-01 -1.50214470e-01 
 1.83653834e+02 -1.44065870e-01 -1.52958523e-01 
 1.85353162e+02 -1.46699518e-01 -1.55751809e-01 
 1.87068214e+02 -1.49380490e-01 -1.58595180e-01 
 1.88799135e+02 -1.52109603e-01 -1.61489498e-01 
 1.90546072e+02 -1.54887693e-01 -1.64435643e-01 
 1.92309173e+02 -1.57715605e-01 -1.67434507e-01 
 1.94088588e+02 -1.60594201e-01 -1.70486995e-01 
 1.95884467e+02 -1.63524353e-01 -1.73594027e-01 
 1.97696964e+02 -1.66506950e-01 -1.76756538e-01 
 1.99526231e+02 -1.69542893e-01 -1.79975478e-01 
 2.01372425e+02 -1.72633098e-01 -1.83251809e-01 
 2.03235701e+02 -1.75778495e-01 -1.86586512e-01 
 2.05116218e+02 -1.78980030e-01 -1.89980579e-01 
 2.07014135e+02 -1.82238661e-01 -1.93435019e-01 
 2.08929613e+02 -1.85555363e-01 -1.96950859e-01 
 2.10862815e+02 -1.88931125e-01 -2.00529137e-01 
 2.12813905e+02 -1.92366951e-01 -2.04170910e-01 
 2.14783047e+02 -1.95863862e-01 -2.07877249e-01 
 2.16770410e+02 -1.99422893e-01 -2.11649244e-01 
 2.18776162e+02 -2.03045095e-01 -2.15487997e-01 
 2.20800473e+02 -2.06731536e-01 -2.19394632e-01 
 2.22843515e+02 -2.10483299e-01 -2.23370284e-01 
 2.24905461e+02 -2.14301483e-01 -2.27416108e-01 
 2.26986485e+02 -2.18187205e-01 -2.31533276e-01 
 2.29086765e+02 -2.22141596e-01 -2.35722977e-01 
 2.31206479e+02 -2.26165807e-01 -2.39986416e-01 
 2.33345806e+02 -2.30261004e-01 -2.44324817e-01 
 2.35504928e+02 -2.34428370e-01 -2.48739421e-01 
 2.37684029e+02 -2.38669106e-01 -2.53231487e-01 
 2.39883292e+02 -2.42984430e-01 -2.57802292e-01 
 2.42102905e+02 -2.47375579e-01 -2.62453131e-01 
 2.44343055e+02 -2.51843805e-01 -2.67185317e-01 
 2.46603934e+02 -2.56390380e-01 -2.72000183e-01 
 2.48885732e+02 -2.61016595e-01 -2.76899078e-01 
 2.51188643e+02 -2.65723756e-01 -2.81883373e-01 
 2.53512863e+02 -2.70513191e-01 -2.86954454e-01 
 2.55858589e+02 -2.75386244e-01 -2.92113729e-01 
 2.58226019e+02 -2.80344279e-01 -2.97362625e-01 
 2.60615355e+02 -2.85388678e-01 -3.02702587e-01 
 2.63026799e+02 -2.90520843e-01 -3.08135081e-01 
 2.65460556e+02 -2.95742195e-01 -3.13661590e-01 
 2.67916832e+02 -3.01054173e-01 -3.19283618e-01 
 2.70395836e+02 -3.06458237e-01 -3.25002691e-01 
 2.72897778e+02 -3.11955865e-01 -3.30820352e-01 
 2.75422870e+02 -3.17548557e-01 -3.36738166e-01 
 2.77971327e+02 -3.23237830e-01 -3.42757715e-01 
 2.80543364e+02 -3.29025223e-01 -3.48880605e-01 
 2.83139200e+02 -3.34912293e-01 -3.55108460e-01 
 2.85759054e+02 -3.40900619e-01 -3.61442925e-01 
 2.88403150e+02 -3.46991800e-01 -3.67885666e-01 
 2.91071712e+02 -3.53187453e-01 -3.74438369e-01 
 2.93764965e+02 -3.59489219e-01 -3.81102740e-01 
 2.96483139e+02 -3.65898756e-01 -3.87880506e-01 
 2.99226464e+02 -3.72417746e-01 -3.94773416e-01 
 3.01995172e+02 -3.79047887e-01 -4.01783238e-01 
 3.04789499e+02 -3.85790902e-01 -4.08911761e-01 
 3.07609681e+02 -3.92648533e-01 -4.16160797e-01 
 3.10455959e+02 -3.99622543e-01 -4.23532175e-01 
 3.13328572e+02 -4.06714714e-01 -4.31027748e-01 
 3.16227766e+02 -4.13926852e-01 -4.38649388e-01 
 3.19153786e+02 -4.21260780e-01 -4.46398990e-01 
 3.22106879e+02 -4.28718347e-01 -4.54278467e-01 
 3.25087297e+02 -4.36301417e-01 -4.62289754e-01 
 3.28095293e+02 -4.44011879e-01 -4.70434807e-01 
 3.31131121e+02 -4.51851641e-01 -4.78715602e-01 
 3.34195040e+02 -4.59822633e-01 -4.87134137e-01 
 3.37287309e+02 -4.67926804e-01 -4.95692429e-01 
 3.40408190e+02 -4.76166125e-01 -5.04392515e-01 
 3.43557948e+02 -4.84542587e-01 -5.13236454e-01 
 3.46736850e+02 -4.93058202e-01 -5.22226324e-01 
 3.49945167e+02 -5.01715002e-01 -5.31364224e-01 
 3.53183170e+02 -5.10515040e-01 -5.40652273e-01 
 3.56451133e+02 -5.19460389e-01 -5.50092607e-01 
 3.59749335e+02 -5.28553141e-01 -5.59687386e-01 
 3.63078055e+02 -5.37795411e-01 -5.69438786e-01 
 3.66437575e+02 -5.47189330e-01 -5.79349003e-01 
 3.69828180e+02 -5.56737051e-01 -5.89420254e-01 
 3.73250158e+02 -5.66440746e-01 -5.99654771e-01 
 3.76703799e+02 -5.76302607e-01 -6.10054809e-01 
 3.80189396e+02 -5.86324843e-01 -6.20622639e-01 
 3.83707245e+02 -5.96509685e-01 -6.31360548e-01 
 3.87257645e+02 -6.06859381e-01 -6.42270844e-01 
 3.90840896e+02 -6.17376196e-01 -6.53355851e-01 
