 frequency       inoise_spectrum onoise_spectrum
 1.00000000e+00  1.87264202e-05  2.55129142e+00 
 1.05776756e+00  1.82078964e-05  2.47847820e+00 
 1.11887221e+00  1.77037305e-05  2.40749705e+00 
 1.18350673e+00  1.72135249e-05  2.33828245e+00 
 1.25187503e+00  1.67368932e-05  2.27076967e+00 
 1.32419279e+00  1.62734594e-05  2.20489471e+00 
 1.40068818e+00  1.58228582e-05  2.14059431e+00 
 1.48160252e+00  1.53847342e-05  2.07780586e+00 
 1.56719108e+00  1.49587419e-05  2.01646739e+00 
 1.65772389e+00  1.45445454e-05  1.95651760e+00 
 1.75348655e+00  1.41418180e-05  1.89789585e+00 
 1.85478119e+00  1.37502423e-05  1.84054224e+00 
 1.96192737e+00  1.33695094e-05  1.78439764e+00 
 2.07526313e+00  1.29993191e-05  1.72940382e+00 
 2.19514602e+00  1.26393795e-05  1.67550363e+00 
 2.32195425e+00  1.22894067e-05  1.62264111e+00 
 2.45608788e+00  1.19491248e-05  1.57076183e+00 
 2.59797009e+00  1.16182655e-05  1.51981310e+00 
 2.74804848e+00  1.12965678e-05  1.46974436e+00 
 2.90679654e+00  1.09837781e-05  1.42050756e+00 
 3.07471508e+00  1.06796496e-05  1.37205767e+00 
 3.25233387e+00  1.03839427e-05  1.32435314e+00 
 3.44021326e+00  1.00964241e-05  1.27735650e+00 
 3.63894599e+00  9.81686711e-06  1.23103496e+00 
 3.84915902e+00  9.54505125e-06  1.18536103e+00 
 4.07151555e+00  9.28076218e-06  1.14031315e+00 
 4.30671707e+00  9.02379151e-06  1.09587629e+00 
 4.55550561e+00  8.77393660e-06  1.05204250e+00 
 4.81866605e+00  8.53100042e-06  1.00881137e+00 
 5.09702863e+00  8.29479141e-06  9.66190315e-01 
 5.39147154e+00  8.06512331e-06  9.24194773e-01 
 5.70292370e+00  7.84181500e-06  8.82848120e-01 
 6.03236769e+00  7.62469039e-06  8.42181390e-01 
 6.38084285e+00  7.41357828e-06  8.02232720e-01 
 6.74944857e+00  7.20831218e-06  7.63046539e-01 
 7.13934775e+00  7.00873024e-06  7.24672498e-01 
 7.55177045e+00  6.81467506e-06  6.87164169e-01 
 7.98801781e+00  6.62599364e-06  6.50577552e-01 
 8.44946611e+00  6.44253718e-06  6.14969461e-01 
 8.93757115e+00  6.26416102e-06  5.80395838e-01 
 9.45387283e+00  6.09072449e-06  5.46910090e-01 
 1.00000000e+01  5.92209084e-06  5.14561511e-01 
 1.05776756e+01  5.75812709e-06  4.83393872e-01 
 1.11887221e+01  5.59870394e-06  4.53444221e-01 
 1.18350673e+01  5.44369567e-06  4.24741963e-01 
 1.25187503e+01  5.29298007e-06  3.97308214e-01 
 1.32419279e+01  5.14643826e-06  3.71155467e-01 
 1.40068818e+01  5.00395472e-06  3.46287535e-01 
 1.48160252e+01  4.86541706e-06  3.22699766e-01 
 1.56719108e+01  4.73071606e-06  3.00379478e-01 
 1.65772389e+01  4.59974549e-06  2.79306580e-01 
 1.75348655e+01  4.47240207e-06  2.59454332e-01 
 1.85478119e+01  4.34858539e-06  2.40790189e-01 
 1.96192737e+01  4.22819781e-06  2.23276704e-01 
 2.07526313e+01  4.11114440e-06  2.06872424e-01 
 2.19514602e+01  3.99733285e-06  1.91532783e-01 
 2.32195425e+01  3.88667342e-06  1.77210930e-01 
 2.45608788e+01  3.77907885e-06  1.63858507e-01 
 2.59797009e+01  3.67446429e-06  1.51426341e-01 
 2.74804848e+01  3.57274725e-06  1.39865056e-01 
 2.90679654e+01  3.47384752e-06  1.29125604e-01 
 3.07471508e+01  3.37768711e-06  1.19159704e-01 
 3.25233387e+01  3.28419019e-06  1.09920208e-01 
 3.44021326e+01  3.19328304e-06  1.01361395e-01 
 3.63894599e+01  3.10489397e-06  9.34391932e-02 
 3.84915902e+01  3.01895328e-06  8.61113452e-02 
 4.07151555e+01  2.93539320e-06  7.93375252e-02 
 4.30671707e+01  2.85414784e-06  7.30794080e-02 
 4.55550561e+01  2.77515314e-06  6.73007033e-02 
 4.81866605e+01  2.69834679e-06  6.19671586e-02 
 5.09702863e+01  2.62366824e-06  5.70465383e-02 
 5.39147154e+01  2.55105860e-06  5.25085816e-02 
 5.70292370e+01  2.48046061e-06  4.83249467e-02 
 6.03236769e+01  2.41181860e-06  4.44691423e-02 
 6.38084285e+01  2.34507844e-06  4.09164514e-02 
 6.74944857e+01  2.28018750e-06  3.76438494e-02 
 7.13934775e+01  2.21709462e-06  3.46299189e-02 
 7.55177045e+01  2.15575003e-06  3.18547629e-02 
 7.98801781e+01  2.09610538e-06  2.92999178e-02 
 8.44946611e+01  2.03811362e-06  2.69482673e-02 
 8.93757115e+01  1.98172902e-06  2.47839589e-02 
 9.45387283e+01  1.92690712e-06  2.27923219e-02 
 1.00000000e+02  1.87360470e-06  2.09597895e-02 
 1.05776756e+02  1.82177972e-06  1.92738235e-02 
 1.11887221e+02  1.77139131e-06  1.77228431e-02 
 1.18350673e+02  1.72239973e-06  1.62961573e-02 
 1.25187503e+02  1.67476637e-06  1.49839010e-02 
 1.32419279e+02  1.62845364e-06  1.37769749e-02 
 1.40068818e+02  1.58342504e-06  1.26669892e-02 
 1.48160252e+02  1.53964506e-06  1.16462107e-02 
 1.56719108e+02  1.49707916e-06  1.07075136e-02 
 1.65772389e+02  1.45569380e-06  9.84433334e-03 
 1.75348655e+02  1.41545633e-06  9.05062397e-03 
 1.85478119e+02  1.37633501e-06  8.32081826e-03 
 1.96192737e+02  1.33829902e-06  7.64979075e-03 
 2.07526313e+02  1.30131833e-06  7.03282350e-03 
 2.19514602e+02  1.26536381e-06  6.46557428e-03 
 2.32195425e+02  1.23040709e-06  5.94404725e-03 
 2.45608788e+02  1.19642061e-06  5.46456569e-03 
 2.59797009e+02  1.16337757e-06  5.02374695e-03 
 2.74804848e+02  1.13125191e-06  4.61847914e-03 
 2.90679654e+02  1.10001829e-06  4.24589977e-03 
 3.07471508e+02  1.06965209e-06  3.90337592e-03 
 3.25233387e+02  1.04012937e-06  3.58848600e-03 
 3.44021326e+02  1.01142683e-06  3.29900293e-03 
 3.63894599e+02  9.83521855e-07  3.03287862e-03 
 3.84915902e+02  9.56392426e-07  2.78822967e-03 
 4.07151555e+02  9.30017154e-07  2.56332421e-03 
 4.30671707e+02  9.04375238e-07  2.35656978e-03 
 4.55550561e+02  8.79446459e-07  2.16650211e-03 
 4.81866605e+02  8.55211156e-07  1.99177491e-03 
 5.09702863e+02  8.31650218e-07  1.83115035e-03 
 5.39147154e+02  8.08745064e-07  1.68349036e-03 
 5.70292370e+02  7.86477631e-07  1.54774863e-03 
 6.03236769e+02  7.64830357e-07  1.42296320e-03 
 6.38084285e+02  7.43786171e-07  1.30824971e-03 
 6.74944857e+02  7.23328476e-07  1.20279511e-03 
 7.13934775e+02  7.03441138e-07  1.10585197e-03 
 7.55177045e+02  6.84108473e-07  1.01673316e-03 
 7.98801781e+02  6.65315231e-07  9.34806975e-04 
 8.44946611e+02  6.47046593e-07  8.59492728e-04 
 8.93757115e+02  6.29288148e-07  7.90256580e-04 
 9.45387283e+02  6.12025889e-07  7.26607789e-04 
 1.00000000e+03  5.95246201e-07  6.68095229e-04 
 1.05776756e+03  5.78935848e-07  6.14304191e-04 
 1.11887221e+03  5.63081964e-07  5.64853453e-04 
 1.18350673e+03  5.47672042e-07  5.19392568e-04 
 1.25187503e+03  5.32693927e-07  4.77599389e-04 
 1.32419279e+03  5.18135801e-07  4.39177780e-04 
 1.40068818e+03  5.03986179e-07  4.03855516e-04 
 1.48160252e+03  4.90233896e-07  3.71382359e-04 
 1.56719108e+03  4.76868100e-07  3.41528275e-04 
 1.65772389e+03  4.63878245e-07  3.14081809e-04 
 1.75348655e+03  4.51254079e-07  2.88848579e-04 
 1.85478119e+03  4.38985638e-07  2.65649904e-04 
 1.96192737e+03  4.27063237e-07  2.44321532e-04 
 2.07526313e+03  4.15477465e-07  2.24712476e-04 
 2.19514602e+03  4.04219174e-07  2.06683942e-04 
 2.32195425e+03  3.93279474e-07  1.90108345e-04 
 2.45608788e+03  3.82649724e-07  1.74868405e-04 
 2.59797009e+03  3.72321528e-07  1.60856310e-04 
 2.74804848e+03  3.62286725e-07  1.47972959e-04 
 2.90679654e+03  3.52537385e-07  1.36127252e-04 
 3.07471508e+03  3.43065802e-07  1.25235445e-04 
 3.25233387e+03  3.33864485e-07  1.15220559e-04 
 3.44021326e+03  3.24926158e-07  1.06011830e-04 
 3.63894599e+03  3.16243748e-07  9.75442082e-05 
 3.84915902e+03  3.07810383e-07  8.97578983e-05 
 4.07151555e+03  2.99619384e-07  8.25979323e-05 
 4.30671707e+03  2.91664263e-07  7.60137808e-05 
 4.55550561e+03  2.83938713e-07  6.99589949e-05 
 4.81866605e+03  2.76436607e-07  6.43908760e-05 
 5.09702863e+03  2.69151991e-07  5.92701732e-05 
 5.39147154e+03  2.62079080e-07  5.45608046e-05 
 5.70292370e+03  2.55212251e-07  5.02296017e-05 
 6.03236769e+03  2.48546041e-07  4.62460735e-05 
 6.38084285e+03  2.42075141e-07  4.25821910e-05 
 6.74944857e+03  2.35794393e-07  3.92121877e-05 
 7.13934775e+03  2.29698784e-07  3.61123772e-05 
 7.55177045e+03  2.23783441e-07  3.32609852e-05 
 7.98801781e+03  2.18043630e-07  3.06379950e-05 
 8.44946611e+03  2.12474748e-07  2.82250053e-05 
 8.93757115e+03  2.07072323e-07  2.60051003e-05 
 9.45387283e+03  2.01832007e-07  2.39627293e-05 
 1.00000000e+04  1.96749574e-07  2.20835966e-05 
 1.05776756e+04  1.91820914e-07  2.03545600e-05 
 1.11887221e+04  1.87042032e-07  1.87635380e-05 
 1.18350673e+04  1.82409044e-07  1.72994238e-05 
 1.25187503e+04  1.77918170e-07  1.59520067e-05 
 1.32419279e+04  1.73565737e-07  1.47118999e-05 
 1.40068818e+04  1.69348167e-07  1.35704737e-05 
 1.48160252e+04  1.65261983e-07  1.25197946e-05 
 1.56719108e+04  1.61303798e-07  1.15525690e-05 
 1.65772389e+04  1.57470316e-07  1.06620916e-05 
 1.75348655e+04  1.53758327e-07  9.84219760e-06 
 1.85478119e+04  1.50164706e-07  9.08721965e-06 
 1.96192737e+04  1.46686407e-07  8.39194718e-06 
 2.07526313e+04  1.43320462e-07  7.75158975e-06 
 2.19514602e+04  1.40063977e-07  7.16174312e-06 
 2.32195425e+04  1.36914132e-07  6.61835806e-06 
 2.45608788e+04  1.33868173e-07  6.11771170e-06 
 2.59797009e+04  1.30923414e-07  5.65638122e-06 
 2.74804848e+04  1.28077232e-07  5.23121960e-06 
 2.90679654e+04  1.25327064e-07  4.83933340e-06 
 3.07471508e+04  1.22670406e-07  4.47806228e-06 
 3.25233387e+04  1.20104812e-07  4.14496022e-06 
 3.44021326e+04  1.17627886e-07  3.83777819e-06 
 3.63894599e+04  1.15237286e-07  3.55444831e-06 
 3.84915902e+04  1.12930718e-07  3.29306920e-06 
 4.07151555e+04  1.10705937e-07  3.05189256e-06 
 4.30671707e+04  1.08560740e-07  2.82931085e-06 
 4.55550561e+04  1.06492970e-07  2.62384590e-06 
 4.81866605e+04  1.04500511e-07  2.43413850e-06 
 5.09702863e+04  1.02581287e-07  2.25893881e-06 
 5.39147154e+04  1.00733260e-07  2.09709754e-06 
 5.70292370e+04  9.89544300e-08  1.94755781e-06 
 6.03236769e+04  9.72428318e-08  1.80934775e-06 
 6.38084285e+04  9.55965359e-08  1.68157361e-06 
 6.74944857e+04  9.40136464e-08  1.56341347e-06 
 7.13934775e+04  9.24923000e-08  1.45411144e-06 
 7.55177045e+04  9.10306658e-08  1.35297235e-06 
 7.98801781e+04  8.96269442e-08  1.25935683e-06 
 8.44946611e+04  8.82793667e-08  1.17267683e-06 
 8.93757115e+04  8.69861954e-08  1.09239145e-06 
 9.45387283e+04  8.57457225e-08  1.01800317e-06 
 1.00000000e+05  8.45562703e-08  9.49054328e-07 
 1.05776756e+05  8.34161912e-08  8.85123884e-07 
 1.11887221e+05  8.23238674e-08  8.25824496e-07 
 1.18350673e+05  8.12777110e-08  7.70799776e-07 
 1.25187503e+05  8.02761643e-08  7.19721793e-07 
 1.32419279e+05  7.93176999e-08  6.72288773e-07 
 1.40068818e+05  7.84008208e-08  6.28222981e-07 
 1.48160252e+05  7.75240606e-08  5.87268778e-07 
 1.56719108e+05  7.66859841e-08  5.49190834e-07 
 1.65772389e+05  7.58851872e-08  5.13772482e-07 
 1.75348655e+05  7.51202976e-08  4.80814207e-07 
 1.85478119e+05  7.43899747e-08  4.50132259e-07 
 1.96192737e+05  7.36929101e-08  4.21557375e-07 
 2.07526313e+05  7.30278279e-08  3.94933606e-07 
 2.19514602e+05  7.23934849e-08  3.70117240e-07 
 2.32195425e+05  7.17886705e-08  3.46975810e-07 
 2.45608788e+05  7.12122076e-08  3.25387184e-07 
 2.59797009e+05  7.06629518e-08  3.05238730e-07 
 2.74804848e+05  7.01397923e-08  2.86426549e-07 
 2.90679654e+05  6.96416514e-08  2.68854766e-07 
 3.07471508e+05  6.91674848e-08  2.52434885e-07 
 3.25233387e+05  6.87162813e-08  2.37085196e-07 
 3.44021326e+05  6.82870629e-08  2.22730223e-07 
 3.63894599e+05  6.78788846e-08  2.09300229e-07 
 3.84915902e+05  6.74908339e-08  1.96730751e-07 
 4.07151555e+05  6.71220310e-08  1.84962183e-07 
 4.30671707e+05  6.67716283e-08  1.73939379e-07 
 4.55550561e+05  6.64388100e-08  1.63611309e-07 
 4.81866605e+05  6.61227919e-08  1.53930721e-07 
 5.09702863e+05  6.58228208e-08  1.44853850e-07 
 5.39147154e+05  6.55381745e-08  1.36340137e-07 
 5.70292370e+05  6.52681609e-08  1.28351979e-07 
 6.03236769e+05  6.50121180e-08  1.20854497e-07 
 6.38084285e+05  6.47694131e-08  1.13815323e-07 
 6.74944857e+05  6.45394426e-08  1.07204403e-07 
 7.13934775e+05  6.43216317e-08  1.00993823e-07 
 7.55177045e+05  6.41154334e-08  9.51576376e-08 
 7.98801781e+05  6.39203291e-08  8.96717220e-08 
 8.44946611e+05  6.37358272e-08  8.45136337e-08 
 8.93757115e+05  6.35614637e-08  7.96624839e-08 
 9.45387283e+05  6.33968012e-08  7.50988200e-08 
 1.00000000e+06  6.32414292e-08  7.08045184e-08 
 1.05776756e+06  6.30949637e-08  6.67626851e-08 
 1.11887221e+06  6.29570473e-08  6.29575643e-08 
 1.18350673e+06  6.28273490e-08  5.93744550e-08 
 1.25187503e+06  6.27055645e-08  5.59996334e-08 
 1.32419279e+06  6.25914162e-08  5.28202823e-08 
 1.40068818e+06  6.24846538e-08  4.98244249e-08 
 1.48160252e+06  6.23850541e-08  4.70008654e-08 
 1.56719108e+06  6.22924225e-08  4.43391326e-08 
 1.65772389e+06  6.22065928e-08  4.18294294e-08 
 1.75348655e+06  6.21274286e-08  3.94625850e-08 
 1.85478119e+06  6.20548241e-08  3.72300117e-08 
 1.96192737e+06  6.19887052e-08  3.51236645e-08 
 2.07526313e+06  6.19290312e-08  3.31360038e-08 
 2.19514602e+06  6.18757959e-08  3.12599619e-08 
 2.32195425e+06  6.18290297e-08  2.94889103e-08 
 2.45608788e+06  6.17888015e-08  2.78166316e-08 
 2.59797009e+06  6.17552209e-08  2.62372917e-08 
 2.74804848e+06  6.17284405e-08  2.47454155e-08 
 2.90679654e+06  6.17086586e-08  2.33358638e-08 
 3.07471508e+06  6.16961221e-08  2.20038121e-08 
 3.25233387e+06  6.16911295e-08  2.07447314e-08 
 3.44021326e+06  6.16940341e-08  1.95543700e-08 
 3.63894599e+06  6.17052475e-08  1.84287371e-08 
 3.84915902e+06  6.17252431e-08  1.73640880e-08 
 4.07151555e+06  6.17545599e-08  1.63569097e-08 
 4.30671707e+06  6.17938059e-08  1.54039086e-08 
 4.55550561e+06  6.18436626e-08  1.45019982e-08 
 4.81866605e+06  6.19048881e-08  1.36482893e-08 
 5.09702863e+06  6.19783214e-08  1.28400790e-08 
 5.39147154e+06  6.20648856e-08  1.20748424e-08 
 5.70292370e+06  6.21655923e-08  1.13502235e-08 
 6.03236769e+06  6.22815445e-08  1.06640272e-08 
 6.38084285e+06  6.24139404e-08  1.00142117e-08 
 6.74944857e+06  6.25640772e-08  9.39888120e-09 
 7.13934775e+06  6.27333545e-08  8.81627776e-09 
 7.55177045e+06  6.29232791e-08  8.26477440e-09 
 7.98801781e+06  6.31354692e-08  7.74286710e-09 
 8.44946611e+06  6.33716605e-08  7.24916672e-09 
 8.93757115e+06  6.36337128e-08  6.78239053e-09 
 9.45387283e+06  6.39236193e-08  6.34135314e-09 
 1.00000000e+07  6.42435160e-08  5.92495708e-09 
 1.05776756e+07  6.45956950e-08  5.53218285e-09 
 1.11887221e+07  6.49826190e-08  5.16207863e-09 
 1.18350673e+07  6.54069379e-08  4.81374984e-09 
 1.25187503e+07  6.58715071e-08  4.48634882e-09 
 1.32419279e+07  6.63794066e-08  4.17906468e-09 
 1.40068818e+07  6.69339592e-08  3.89111386e-09 
 1.48160252e+07  6.75387472e-08  3.62173152e-09 
 1.56719108e+07  6.81976245e-08  3.37016405e-09 
 1.65772389e+07  6.89147216e-08  3.13566297e-09 
 1.75348655e+07  6.96944425e-08  2.91748022e-09 
 1.85478119e+07  7.05414473e-08  2.71486512e-09 
 1.96192737e+07  7.14606214e-08  2.52706279e-09 
 2.07526313e+07  7.24570249e-08  2.35331407e-09 
 2.19514602e+07  7.35358219e-08  2.19285665e-09 
 2.32195425e+07  7.47021864e-08  2.04492737e-09 
 2.45608788e+07  7.59611833e-08  1.90876528e-09 
 2.59797009e+07  7.73176240e-08  1.78361526e-09 
 2.74804848e+07  7.87758973e-08  1.66873196e-09 
 2.90679654e+07  8.03397759e-08  1.56338385e-09 
 3.07471508e+07  8.20122026e-08  1.46685715e-09 
 3.25233387e+07  8.37950598e-08  1.37845943e-09 
 3.44021326e+07  8.56889287e-08  1.29752291e-09 
 3.63894599e+07  8.76928457e-08  1.22340728e-09 
 3.84915902e+07  8.98040649e-08  1.15550203e-09 
 4.07151555e+07  9.20178374e-08  1.09322833e-09 
 4.30671707e+07  9.43272185e-08  1.03604040e-09 
 4.55550561e+07  9.67229153e-08  9.83426495e-10 
 4.81866605e+07  9.91931867e-08  9.34909500e-10 
 5.09702863e+07  1.01723809e-07  8.90047209e-10 
 5.39147154e+07  1.04298118e-07  8.48432306e-10 
 5.70292370e+07  1.06897136e-07  8.09692129e-10 
 6.03236769e+07  1.09499795e-07  7.73488212e-10 
 6.38084285e+07  1.12083258e-07  7.39515662e-10 
 6.74944857e+07  1.14623341e-07  7.07502349e-10 
 7.13934775e+07  1.17095029e-07  6.77207932e-10 
 7.55177045e+07  1.19473077e-07  6.48422703e-10 
 7.98801781e+07  1.21732689e-07  6.20966246e-10 
 8.44946611e+07  1.23850235e-07  5.94685889e-10 
 8.93757115e+07  1.25803993e-07  5.69454939e-10 
 9.45387283e+07  1.27574883e-07  5.45170715e-10 
 1.00000000e+08  1.29147141e-07  5.21752359e-10 
